5.0,27496.0
5.0171561,27495.0
5.0343122,27196.0
5.0514683,27216.0
5.0686244,26533.0
5.0857805,26697.0
5.1029366,26398.0
5.1200927,26168.0
5.1372488,25953.0
5.1544049,25895.0
5.171561,25548.0
5.1887171,25443.0
5.2058732,25159.0
5.2230293,25322.0
5.2401854,24962.0
5.2573415,24507.0
5.2744976,24281.0
5.2916537,24540.0
5.3088098,24321.0
5.3259659,24611.0
5.343122,23725.0
5.3602781,23765.0
5.3774342,23380.0
5.3945903,23151.0
5.4117464,23088.0
5.4289025,23098.0
5.4460586,22526.0
5.4632147,22917.0
5.4803708,22435.0
5.4975269,22393.0
5.514683,22297.0
5.5318391,21988.0
5.5489952,21915.0
5.5661513,21572.0
5.5833074,21645.0
5.6004635,21422.0
5.6176196,21381.0
5.6347757000000005,21062.0
5.6519318,20824.0
5.6690879,21008.0
5.686244,20630.0
5.7034001,20402.0
5.7205562,20407.0
5.7377123,20476.0
5.7548684,20347.0
5.7720245,20283.0
5.7891806,20001.0
5.8063367,19638.0
5.8234928,19678.0
5.8406489,19807.0
5.857805,19473.0
5.8749611,19291.0
5.8921172,19477.0
5.9092733,19288.0
5.9264294,18907.0
5.9435855,18969.0
5.9607416,18948.0
5.9778977,18487.0
5.9950538,18399.0
6.0122099,18463.0
6.029366,18471.0
6.0465221,18288.0
6.0636782,17966.0
6.0808343,17927.0
6.0979904000000005,17912.0
6.1151465,17717.0
6.1323026,17627.0
6.1494587,17305.0
6.1666148,17232.0
6.1837709,17284.0
6.200927,17177.0
6.2180831,16952.0
6.2352392000000005,16853.0
6.2523953,16691.0
6.2695514,16671.0
6.2867075,16491.0
6.3038636,16244.0
6.3210197,16298.0
6.3381758,16025.0
6.3553319,15748.0
6.372488000000001,15863.0
6.3896441,15719.0
6.4068002,15644.0
6.4239563,15361.0
6.4411124,15519.0
6.4582685,15165.0
6.4754246,15156.0
6.4925806999999995,14991.0
6.5097368,14777.0
6.5268929,14739.0
6.544049,14684.0
6.5612051000000005,14464.0
6.5783612,14376.0
6.5955173,14270.0
6.6126734,14024.0
6.6298295,13853.0
6.6469856,13756.0
6.6641417,13860.0
6.6812978,13489.0
6.6984539000000005,13474.0
6.71561,13225.0
6.7327661,13238.0
6.7499222,13041.0
6.7670783,12772.0
6.7842344,12610.0
6.8013905,12659.0
6.8185466,12418.0
6.835702700000001,12351.0
6.8528588,12684.0
6.8700149,12068.0
6.887171,12360.0
6.9043271,12016.0
6.9214832,11969.0
6.9386393,11733.0
6.9557953999999995,11554.0
6.9729515,11466.0
6.9901076,11468.0
7.0072637,11308.0
7.0244198,11126.0
7.0415759,11126.0
7.058732,11045.0
7.0758881,10675.0
7.0930442,10709.0
7.110200300000001,10554.0
7.1273564,10560.0
7.1445125,10389.0
7.1616686000000005,10170.0
7.1788247,10239.0
7.1959808,9956.0
7.2131369,10066.0
7.230293,9758.0
7.2474491,9995.0
7.2646052,9658.0
7.281761299999999,9752.0
7.2989174000000006,9483.0
7.3160735,9224.0
7.3332296,9349.0
7.3503857,9218.0
7.3675418,9159.0
7.3846979,9099.0
7.401854,8941.0
7.4190100999999995,8819.0
7.436166200000001,8730.0
7.4533223,8971.0
7.4704784,8779.0
7.4876345,8471.0
7.5047906,8462.0
7.5219467,8407.0
7.5391028,8409.0
7.5562589,8317.0
7.573415000000001,8180.0
7.5905711,8038.0
7.6077272,8086.0
7.6248833000000005,8066.0
7.6420394,8130.0
7.6591955,7844.0
7.6763516,7964.0
7.6935077,7699.0
7.710663800000001,7748.0
7.7278199,7719.0
7.744976,7599.0
7.7621321000000005,7632.0
7.7792882,7477.0
7.7964443,7709.0
7.8136004,7472.0
7.8307565,7559.0
7.8479126,7413.0
7.8650687,7418.0
7.8822247999999995,7467.0
7.899380900000001,7497.0
7.916537,7432.0
7.9336931,7327.0
7.9508492,7376.0
7.9680053,7301.0
7.9851614,7299.0
8.0023175,7385.0
8.0194736,7408.0
8.0366297,7414.0
8.0537858,7464.0
8.070941900000001,7469.0
8.088098,7531.0
8.1052541,7406.0
8.122410200000001,7496.0
8.1395663,7543.0
8.1567224,7592.0
8.1738785,7544.0
8.1910346,7350.0
8.2081907,7414.0
8.2253468,7355.0
8.2425029,7547.0
8.259659,7520.0
8.2768151,7392.0
8.2939712,7399.0
8.311127299999999,7367.0
8.3282834,7451.0
8.3454395,7431.0
8.3625956,7484.0
8.3797517,7558.0
8.396907800000001,7630.0
8.4140639,7492.0
8.43122,7572.0
8.4483761,7621.0
8.4655322,7520.0
8.4826883,7485.0
8.4998444,7501.0
8.5170005,7419.0
8.5341566,7743.0
8.5513127,7680.0
8.5684688,7647.0
8.5856249,7797.0
8.602781,7670.0
8.6199371,7514.0
8.6370932,7460.0
8.6542493,7594.0
8.671405400000001,7522.0
8.6885615,7724.0
8.7057176,7654.0
8.722873700000001,7728.0
8.7400298,7601.0
8.7571859,7787.0
8.774342,7703.0
8.7914981,7629.0
8.8086542,8010.0
8.8258103,7635.0
8.8429664,7707.0
8.8601225,7704.0
8.8772786,7832.0
8.8944347,7946.0
8.911590799999999,7818.0
8.9287469,7758.0
8.945903,7727.0
8.9630591,7662.0
8.9802152,7868.0
8.997371300000001,7774.0
9.0145274,7798.0
9.0316835,7753.0
9.0488396,7865.0
9.0659957,7793.0
9.0831518,7792.0
9.1003079,7881.0
9.117464,7665.0
9.1346201,7965.0
9.1517762,8001.0
9.1689323,7938.0
9.1860884,7931.0
9.2032445,7931.0
9.220400600000001,7994.0
9.237556699999999,7855.0
9.2547128,7929.0
9.271868900000001,7942.0
9.289025,7869.0
9.3061811,7841.0
9.323337200000001,7954.0
9.3404933,8041.0
9.3576494,7740.0
9.3748055,7902.0
9.3919616,7923.0
9.4091177,7955.0
9.4262738,7783.0
9.4434299,7859.0
9.460586,7832.0
9.4777421,7909.0
9.4948982,8014.0
9.512054299999999,7963.0
9.5292104,8078.0
9.546366500000001,8014.0
9.563522599999999,7801.0
9.5806787,7929.0
9.597834800000001,7915.0
9.6149909,8077.0
9.632147,8062.0
9.649303100000001,8039.0
9.6664592,8038.0
9.6836153,7900.0
9.7007714,8052.0
9.7179275,7988.0
9.7350836,7869.0
9.7522397,7802.0
9.7693958,8183.0
9.7865519,7985.0
9.803708,8020.0
9.820864100000001,8118.0
9.838020199999999,8092.0
9.8551763,8070.0
9.872332400000001,8083.0
9.8894885,8134.0
9.9066446,8250.0
9.923800700000001,7997.0
9.9409568,8188.0
9.9581129,8206.0
9.975269,8104.0
9.9924251,8325.0
10.0095812,8151.0
10.0267373,8193.0
10.0438934,8263.0
10.0610495,8099.0
10.0782056,8209.0
10.0953617,8403.0
10.1125178,8246.0
10.1296739,8310.0
10.146830000000001,8190.0
10.163986099999999,8181.0
10.1811422,8055.0
10.198298300000001,8250.0
10.2154544,8276.0
10.2326105,8198.0
10.249766600000001,8163.0
10.2669227,8276.0
10.2840788,8124.0
10.3012349,8164.0
10.318391,8134.0
10.3355471,8047.0
10.3527032,7975.0
10.3698593,8177.0
10.3870154,8285.0
10.4041715,8047.0
10.421327600000001,7997.0
10.438483699999999,7977.0
10.4556398,8099.0
10.472795900000001,8209.0
10.489952,8042.0
10.5071081,8110.0
10.524264200000001,7919.0
10.5414203,7937.0
10.5585764,8046.0
10.5757325,8148.0
10.5928886,8048.0
10.6100447,8069.0
10.6272008,8088.0
10.6443569,8172.0
10.661513,8068.0
10.6786691,7904.0
10.6958252,8108.0
10.7129813,7973.0
10.7301374,8129.0
10.747293500000001,8133.0
10.764449599999999,8033.0
10.7816057,8028.0
10.798761800000001,8120.0
10.8159179,8268.0
10.833074,8028.0
10.850230100000001,8068.0
10.8673862,8082.0
10.8845423,8018.0
10.9016984,8044.0
10.9188545,7856.0
10.9360106,7966.0
10.9531667,7827.0
10.9703228,7794.0
10.9874789,7889.0
11.004635,8059.0
11.021791100000002,7766.0
11.038947199999999,7805.0
11.0561033,7789.0
11.073259400000001,7807.0
11.090415499999999,7912.0
11.1075716,7791.0
11.124727700000001,7834.0
11.1418838,7691.0
11.1590399,7693.0
11.176196000000001,7746.0
11.1933521,7890.0
11.2105082,8001.0
11.2276643,7757.0
11.2448204,7888.0
11.2619765,7685.0
11.2791326,7715.0
11.2962887,7800.0
11.3134448,7780.0
11.3306009,7675.0
11.347757000000001,7576.0
11.364913099999999,7734.0
11.3820692,7769.0
11.399225300000001,7704.0
11.4163814,7600.0
11.4335375,7476.0
11.450693600000001,7767.0
11.4678497,7646.0
11.4850058,7550.0
11.5021619,7728.0
11.519318,7477.0
11.5364741,7564.0
11.5536302,7627.0
11.5707863,7670.0
11.5879424,7558.0
11.6050985,7598.0
11.6222546,7516.0
11.639410699999999,7686.0
11.6565668,7569.0
11.673722900000001,7487.0
11.690878999999999,7494.0
11.7080351,7430.0
11.725191200000001,7441.0
11.7423473,7651.0
11.7595034,7406.0
11.776659500000001,7442.0
11.7938156,7462.0
11.8109717,7543.0
11.8281278,7277.0
11.8452839,7451.0
11.86244,7453.0
11.8795961,7461.0
11.8967522,7400.0
11.9139083,7453.0
11.9310644,7393.0
11.948220500000001,7214.0
11.965376599999999,7335.0
11.9825327,7123.0
11.999688800000001,7213.0
12.0168449,7085.0
12.034001,7343.0
12.051157100000001,7195.0
12.0683132,7413.0
12.0854693,7307.0
12.1026254,7206.0
12.1197815,7255.0
12.1369376,7216.0
12.1540937,7043.0
12.1712498,7200.0
12.1884059,7212.0
12.205562,7154.0
12.2227181,7242.0
12.2398742,7083.0
12.2570303,7163.0
12.274186400000001,7117.0
12.291342499999999,7143.0
12.3084986,7036.0
12.325654700000001,6984.0
12.3428108,6952.0
12.3599669,7075.0
12.377123000000001,6959.0
12.3942791,6989.0
12.4114352,6991.0
12.4285913,6966.0
12.4457474,6967.0
12.4629035,7035.0
12.4800596,6994.0
12.4972157,6994.0
12.5143718,6921.0
12.5315279,6797.0
12.548684000000002,6649.0
12.565840099999999,6785.0
12.5829962,6757.0
12.600152300000001,7087.0
12.6173084,6815.0
12.6344645,6814.0
12.651620600000001,6919.0
12.6687767,6902.0
12.6859328,6683.0
12.703088900000001,6712.0
12.720245,6670.0
12.7374011,6805.0
12.7545572,6731.0
12.7717133,6731.0
12.7888694,6767.0
12.8060255,6702.0
12.8231816,6601.0
12.8403377,6554.0
12.8574938,6706.0
12.874649900000001,6615.0
12.891805999999999,6452.0
12.9089621,6720.0
12.926118200000001,6570.0
12.9432743,6527.0
12.9604304,6593.0
12.977586500000001,6488.0
12.9947426,6420.0
13.0118987,6535.0
13.0290548,6606.0
13.0462109,6414.0
13.063367,6600.0
13.0805231,6421.0
13.0976792,6513.0
13.114835300000001,6483.0
13.1319914,6548.0
13.1491475,6480.0
13.1663036,6588.0
13.1834597,6404.0
13.2006158,6393.0
13.2177719,6406.0
13.234928,6367.0
13.2520841,6357.0
13.2692402,6414.0
13.2863963,6336.0
13.303552400000001,6250.0
13.3207085,6314.0
13.3378646,6308.0
13.3550207,6180.0
13.3721768,6295.0
13.3893329,6283.0
13.406489,6200.0
13.4236451,6114.0
13.440801200000001,6290.0
13.4579573,6276.0
13.4751134,6076.0
13.4922695,6180.0
13.5094256,6191.0
13.5265817,6188.0
13.5437378,6337.0
13.5608939,6136.0
13.578050000000001,6005.0
13.5952061,6132.0
13.6123622,6142.0
13.6295183,6114.0
13.6466744,6165.0
13.6638305,6125.0
13.6809866,6165.0
13.6981427,6013.0
13.715298800000001,5935.0
13.7324549,5900.0
13.749611,5979.0
13.766767100000001,5918.0
13.7839232,6066.0
13.8010793,6013.0
13.8182354,5981.0
13.8353915,6043.0
13.8525476,6089.0
13.8697037,5855.0
13.8868598,5937.0
13.904015900000001,5934.0
13.921172,5987.0
13.9383281,5884.0
13.9554842,5880.0
13.9726403,6020.0
13.9897964,5946.0
14.0069525,5955.0
14.0241086,6032.0
14.041264700000001,5952.0
14.0584208,5984.0
14.0755769,5832.0
14.092733,5840.0
14.1098891,5797.0
14.1270452,5738.0
14.1442013,5820.0
14.1613574,5705.0
14.178513500000001,5774.0
14.1956696,5869.0
14.2128257,5775.0
14.229981800000001,5750.0
14.2471379,5576.0
14.264294,5811.0
14.2814501,5851.0
14.2986062,5854.0
14.315762300000001,5802.0
14.3329184,5854.0
14.3500745,5596.0
14.367230600000001,5702.0
14.3843867,5706.0
14.4015428,5611.0
14.4186989,5707.0
14.435855,5810.0
14.4530111,5534.0
14.4701672,5610.0
14.4873233,5569.0
14.504479400000001,5529.0
14.5216355,5564.0
14.5387916,5584.0
14.5559477,5463.0
14.5731038,5603.0
14.5902599,5657.0
14.607416,5613.0
14.6245721,5658.0
14.641728200000001,5509.0
14.6588843,5602.0
14.6760404,5369.0
14.6931965,5485.0
14.7103526,5558.0
14.7275087,5536.0
14.7446648,5574.0
14.7618209,5490.0
14.778977000000001,5551.0
14.7961331,5424.0
14.8132892,5461.0
14.830445300000001,5543.0
14.8476014,5449.0
14.8647575,5449.0
14.8819136,5484.0
14.8990697,5518.0
14.9162258,5298.0
14.9333819,5553.0
14.950538,5615.0
14.967694100000001,5461.0
14.9848502,5478.0
15.0020063,5527.0
15.0191624,5381.0
15.0363185,5371.0
15.0534746,5367.0
15.0706307,5436.0
15.0877868,5469.0
15.104942900000001,5328.0
15.122099,5408.0
15.1392551,5454.0
15.1564112,5427.0
15.1735673,5503.0
15.1907234,5488.0
15.2078795,5552.0
15.2250356,5406.0
15.242191700000001,5375.0
15.2593478,5291.0
15.2765039,5326.0
15.293660000000001,5394.0
15.3108161,5511.0
15.3279722,5459.0
15.3451283,5265.0
15.3622844,5419.0
15.379440500000001,5418.0
15.3965966,5443.0
15.4137527,5547.0
15.430908800000001,5261.0
15.4480649,5440.0
15.465221,5420.0
15.4823771,5363.0
15.4995332,5461.0
15.5166893,5595.0
15.5338454,5350.0
15.5510015,5283.0
15.568157600000001,5276.0
15.5853137,5366.0
15.6024698,5248.0
15.6196259,5455.0
15.636782,5242.0
15.6539381,5360.0
15.6710942,5431.0
15.6882503,5424.0
15.705406400000001,5407.0
15.7225625,5350.0
15.7397186,5391.0
15.756874700000001,5308.0
15.7740308,5513.0
15.7911869,5535.0
15.808343,5333.0
15.8254991,5317.0
15.842655200000001,5294.0
15.8598113,5305.0
15.8769674,5322.0
15.894123500000001,5415.0
15.9112796,5413.0
15.9284357,5622.0
15.9455918,5393.0
15.9627479,5425.0
15.979904000000001,5370.0
15.9970601,5411.0
16.0142162,5451.0
16.0313723,5283.0
16.048528400000002,5489.0
16.0656845,5512.0
16.0828406,5418.0
16.0999967,5454.0
16.1171528,5450.0
16.1343089,5448.0
16.151465,5519.0
16.168621100000003,5397.0
16.1857772,5355.0
16.202933299999998,5336.0
16.2200894,5479.0
16.2372455,5512.0
16.2544016,5458.0
16.271557700000002,5344.0
16.2887138,5460.0
16.3058699,5344.0
16.323026,5396.0
16.3401821,5377.0
16.3573382,5510.0
16.374494300000002,5510.0
16.3916504,5408.0
16.4088065,5449.0
16.4259626,5389.0
16.4431187,5370.0
16.4602748,5489.0
16.4774309,5381.0
16.494587000000003,5432.0
16.5117431,5408.0
16.528899199999998,5393.0
16.5460553,5398.0
16.5632114,5467.0
16.5803675,5410.0
16.597523600000002,5425.0
16.6146797,5421.0
16.6318358,5498.0
16.6489919,5393.0
16.666148,5346.0
16.6833041,5423.0
16.700460200000002,5392.0
16.7176163,5525.0
16.7347724,5400.0
16.751928499999998,5348.0
16.7690846,5352.0
16.7862407,5462.0
16.8033968,5447.0
16.820552900000003,5416.0
16.837709,5491.0
16.854865099999998,5552.0
16.8720212,5516.0
16.8891773,5480.0
16.9063334,5641.0
16.923489500000002,5564.0
16.9406456,5632.0
16.9578017,5543.0
16.9749578,5445.0
16.9921139,5509.0
17.00927,5564.0
17.026426100000002,5556.0
17.043582200000003,5484.0
17.0607383,5569.0
17.077894399999998,5496.0
17.0950505,5585.0
17.1122066,5422.0
17.1293627,5422.0
17.146518800000003,5399.0
17.1636749,5360.0
17.180830999999998,5516.0
17.1979871,5357.0
17.2151432,5437.0
17.2322993,5454.0
17.249455400000002,5535.0
17.2666115,5460.0
17.2837676,5413.0
17.3009237,5505.0
17.3180798,5324.0
17.3352359,5511.0
17.352392000000002,5534.0
17.369548100000003,5586.0
17.3867042,5595.0
17.403860299999998,5488.0
17.4210164,5476.0
17.4381725,5358.0
17.4553286,5483.0
17.472484700000003,5466.0
17.4896408,5475.0
17.5067969,5566.0
17.523953,5493.0
17.5411091,5544.0
17.5582652,5519.0
17.575421300000002,5571.0
17.5925774,5524.0
17.6097335,5482.0
17.6268896,5508.0
17.6440457,5411.0
17.6612018,5589.0
17.6783579,5550.0
17.695514000000003,5483.0
17.7126701,5493.0
17.729826199999998,5520.0
17.7469823,5566.0
17.7641384,5501.0
17.7812945,5557.0
17.798450600000002,5449.0
17.8156067,5363.0
17.8327628,5485.0
17.8499189,5601.0
17.867075,5559.0
17.8842311,5528.0
17.901387200000002,5600.0
17.9185433,5614.0
17.9356994,5534.0
17.9528555,5570.0
17.9700116,5556.0
17.9871677,5503.0
18.0043238,5538.0
18.021479900000003,5635.0
18.038636,5544.0
18.055792099999998,5693.0
18.0729482,5592.0
18.0901043,5630.0
18.1072604,5572.0
18.124416500000002,5578.0
18.1415726,5413.0
18.1587287,5545.0
18.1758848,5649.0
18.1930409,5654.0
18.210197,5660.0
18.227353100000002,5556.0
18.2445092,5633.0
18.2616653,5702.0
18.278821399999998,5571.0
18.2959775,5706.0
18.3131336,5527.0
18.3302897,5573.0
18.347445800000003,5719.0
18.3646019,5578.0
18.381757999999998,5715.0
18.3989141,5706.0
18.4160702,5740.0
18.4332263,5613.0
18.450382400000002,5677.0
18.4675385,5694.0
18.4846946,5537.0
18.5018507,5676.0
18.5190068,5553.0
18.5361629,5718.0
18.553319000000002,5723.0
18.570475100000003,5600.0
18.5876312,5532.0
18.604787299999998,5615.0
18.6219434,5739.0
18.6390995,5691.0
18.6562556,5745.0
18.673411700000003,5662.0
18.6905678,5703.0
18.7077239,5679.0
18.72488,5711.0
18.7420361,5735.0
18.7591922,5601.0
18.776348300000002,5599.0
18.7935044,5592.0
18.8106605,5759.0
18.8278166,5693.0
18.8449727,5745.0
18.8621288,5607.0
18.879284900000002,5740.0
18.896441000000003,5760.0
18.9135971,5682.0
18.930753199999998,5767.0
18.9479093,5714.0
18.9650654,5704.0
18.9822215,5703.0
18.999377600000003,5569.0
19.0165337,5720.0
19.0336898,5685.0
19.0508459,5776.0
19.068002,5691.0
19.0851581,5774.0
19.102314200000002,5644.0
19.1194703,5679.0
19.1366264,5841.0
19.1537825,5720.0
19.1709386,5832.0
19.1880947,5622.0
19.2052508,5625.0
19.222406900000003,5744.0
19.239563,5687.0
19.256719099999998,5557.0
19.2738752,5687.0
19.2910313,5640.0
19.3081874,5733.0
19.325343500000002,5730.0
19.3424996,5660.0
19.3596557,5666.0
19.3768118,5643.0
19.3939679,5751.0
19.411124,5614.0
19.428280100000002,5609.0
19.4454362,5686.0
19.4625923,5619.0
19.4797484,5685.0
19.4969045,5675.0
19.5140606,5751.0
19.5312167,5705.0
19.548372800000003,5648.0
19.5655289,5723.0
19.582684999999998,5706.0
19.5998411,5859.0
19.6169972,5784.0
19.6341533,5740.0
19.651309400000002,5660.0
19.6684655,5651.0
19.6856216,5659.0
19.7027777,5682.0
19.7199338,5875.0
19.7370899,5809.0
19.754246000000002,5822.0
19.771402100000003,5803.0
19.7885582,5754.0
19.805714299999998,5781.0
19.8228704,5835.0
19.8400265,5763.0
19.8571826,5857.0
19.874338700000003,5728.0
19.8914948,5782.0
19.908650899999998,5768.0
19.925807,5812.0
19.9429631,5888.0
19.9601192,5879.0
19.977275300000002,5784.0
19.9944314,5651.0
20.0115875,5870.0
20.0287436,5765.0
20.0458997,5832.0
20.0630558,5679.0
20.080211900000002,5829.0
20.097368000000003,5739.0
20.1145241,5758.0
20.131680199999998,5994.0
20.1488363,5761.0
20.1659924,5742.0
20.1831485,5814.0
20.200304600000003,5794.0
20.2174607,5811.0
20.2346168,5638.0
20.2517729,5631.0
20.268929,5705.0
20.2860851,5805.0
20.303241200000002,5809.0
20.3203973,5719.0
20.3375534,5678.0
20.3547095,5922.0
20.3718656,5747.0
20.3890217,5856.0
20.406177800000002,5764.0
20.423333900000003,5883.0
20.44049,5716.0
20.457646099999998,5864.0
20.4748022,5717.0
20.4919583,5725.0
20.5091144,5763.0
20.526270500000003,5783.0
20.5434266,5840.0
20.5605827,5778.0
20.5777388,5808.0
20.5948949,5791.0
20.612051,5754.0
20.629207100000002,5689.0
20.6463632,5790.0
20.6635193,5801.0
20.6806754,5784.0
20.6978315,5656.0
20.7149876,5833.0
20.7321437,5819.0
20.749299800000003,5749.0
20.7664559,5792.0
20.783611999999998,5866.0
20.8007681,5761.0
20.8179242,5830.0
20.8350803,5968.0
20.852236400000002,5936.0
20.8693925,5708.0
20.8865486,5704.0
20.9037047,5791.0
20.9208608,5876.0
20.9380169,5825.0
20.955173000000002,5894.0
20.9723291,5750.0
20.9894852,5774.0
21.006641300000002,5767.0
21.0237974,5705.0
21.0409535,6018.0
21.0581096,5844.0
21.0752657,5799.0
21.0924218,5837.0
21.1095779,5774.0
21.126734,5925.0
21.1438901,5867.0
21.1610462,5839.0
21.1782023,5861.0
21.1953584,5987.0
21.2125145,5956.0
21.229670600000002,5934.0
21.2468267,5933.0
21.2639828,6023.0
21.281138900000002,5904.0
21.298295,5901.0
21.3154511,5813.0
21.3326072,5882.0
21.3497633,6063.0
21.3669194,5862.0
21.3840755,5873.0
21.4012316,6017.0
21.4183877,5816.0
21.4355438,5933.0
21.4526999,5798.0
21.469856,5892.0
21.4870121,5978.0
21.5041682,6022.0
21.5213243,6132.0
21.5384804,5960.0
21.555636500000002,6047.0
21.5727926,5899.0
21.5899487,5883.0
21.607104800000002,5962.0
21.6242609,5934.0
21.641417,5911.0
21.6585731,5842.0
21.6757292,6032.0
21.6928853,5888.0
21.7100414,6002.0
21.7271975,6015.0
21.7443536,6005.0
21.7615097,5927.0
21.7786658,5975.0
21.7958219,5890.0
21.812978,6049.0
21.830134100000002,6084.0
21.8472902,6071.0
21.8644463,5933.0
21.881602400000002,5917.0
21.8987585,5965.0
21.9159146,5841.0
21.933070700000002,5990.0
21.9502268,5974.0
21.9673829,5842.0
21.984539,5892.0
22.0016951,5832.0
22.0188512,5846.0
22.0360073,5880.0
22.0531634,5905.0
22.0703195,6039.0
22.0874756,6079.0
22.1046317,5992.0
22.1217878,6000.0
22.1389439,5880.0
22.156100000000002,5968.0
22.1732561,6076.0
22.1904122,6098.0
22.207568300000002,6092.0
22.2247244,6202.0
22.2418805,6101.0
22.2590366,5855.0
22.2761927,5936.0
22.2933488,5960.0
22.3105049,6113.0
22.327661,6158.0
22.3448171,6223.0
22.3619732,6195.0
22.3791293,6076.0
22.3962854,6042.0
22.4134415,6210.0
22.430597600000002,6202.0
22.4477537,6166.0
22.4649098,6328.0
22.482065900000002,6225.0
22.499222,6184.0
22.5163781,6348.0
22.533534200000002,6331.0
22.5506903,6228.0
22.5678464,6149.0
22.5850025,6292.0
22.6021586,6337.0
22.6193147,6348.0
22.6364708,6307.0
22.6536269,6246.0
22.670783,6339.0
22.6879391,6356.0
22.7050952,6323.0
22.7222513,6382.0
22.7394074,6406.0
22.756563500000002,6361.0
22.7737196,6298.0
22.7908757,6189.0
22.808031800000002,6345.0
22.8251879,6242.0
22.842344,6328.0
22.8595001,6283.0
22.8766562,6289.0
22.8938123,6246.0
22.9109684,6207.0
22.9281245,6160.0
22.9452806,6243.0
22.9624367,6396.0
22.9795928,6235.0
22.9967489,6182.0
23.013905,6147.0
23.031061100000002,6241.0
23.0482172,6251.0
23.0653733,6235.0
23.082529400000002,6074.0
23.0996855,6202.0
23.1168416,6348.0
23.133997700000002,6262.0
23.1511538,6104.0
23.1683099,6222.0
23.185466,6155.0
23.2026221,6075.0
23.2197782,6093.0
23.2369343,6213.0
23.2540904,6189.0
23.2712465,6307.0
23.2884026,6095.0
23.3055587,6143.0
23.3227148,5993.0
23.3398709,6034.0
23.357027000000002,6084.0
23.3741831,6239.0
23.3913392,6177.0
23.408495300000002,6272.0
23.4256514,6123.0
23.4428075,6180.0
23.459963600000002,6030.0
23.4771197,6159.0
23.4942758,6072.0
23.5114319,6151.0
23.528588,6192.0
23.5457441,6277.0
23.5629002,6132.0
23.5800563,6099.0
23.5972124,6139.0
23.6143685,6278.0
23.631524600000002,6413.0
23.6486807,6125.0
23.6658368,6133.0
23.682992900000002,6335.0
23.700149,6293.0
23.7173051,6217.0
23.734461200000002,6237.0
23.7516173,6389.0
23.7687734,6333.0
23.7859295,6349.0
23.8030856,6382.0
23.8202417,6256.0
23.8373978,6153.0
23.8545539,6295.0
23.87171,6316.0
23.8888661,6261.0
23.9060222,6319.0
23.9231783,6366.0
23.9403344,6245.0
23.957490500000002,6235.0
23.9746466,6365.0
23.9918027,6285.0
24.008958800000002,6245.0
24.0261149,6276.0
24.043271,6344.0
24.060427100000002,6243.0
24.0775832,6239.0
24.0947393,6485.0
24.1118954,6283.0
24.1290515,6279.0
24.1462076,6323.0
24.1633637,6232.0
24.1805198,6398.0
24.1976759,6351.0
24.214832,6380.0
24.2319881,6159.0
24.2491442,6185.0
24.2663003,6205.0
24.283456400000002,6274.0
24.3006125,6258.0
24.3177686,6345.0
24.334924700000002,6365.0
24.3520808,6209.0
24.3692369,6348.0
24.386393,6406.0
24.4035491,6244.0
24.4207052,6226.0
24.4378613,6294.0
24.4550174,6256.0
24.4721735,6146.0
24.4893296,6263.0
24.5064857,6253.0
24.5236418,6236.0
24.5407979,6129.0
24.557954000000002,6301.0
24.5751101,6310.0
24.5922662,6102.0
24.609422300000002,6246.0
24.6265784,6363.0
24.6437345,6325.0
24.660890600000002,6309.0
24.6780467,6438.0
24.6952028,6240.0
24.7123589,6338.0
24.729515,6255.0
24.7466711,6375.0
24.7638272,6256.0
24.7809833,6392.0
24.7981394,6285.0
24.8152955,6387.0
24.8324516,6401.0
24.8496077,6226.0
24.8667638,6360.0
24.883919900000002,6398.0
24.901076,6262.0
24.9182321,6281.0
24.935388200000002,6337.0
24.9525443,6393.0
24.9697004,6329.0
24.986856500000002,6348.0
25.0040126,6252.0
25.0211687,6466.0
25.0383248,6410.0
25.0554809,6467.0
25.072637,6257.0
25.0897931,6478.0
25.1069492,6455.0
25.1241053,6339.0
25.1412614,6441.0
25.158417500000002,6326.0
25.1755736,6494.0
25.1927297,6445.0
25.209885800000002,6468.0
25.2270419,6469.0
25.244198,6366.0
25.261354100000002,6374.0
25.2785102,6550.0
25.2956663,6392.0
25.3128224,6475.0
25.3299785,6572.0
25.3471346,6617.0
25.3642907,6536.0
25.3814468,6481.0
25.3986029,6668.0
25.415759,6482.0
25.4329151,6377.0
25.4500712,6574.0
25.4672273,6475.0
25.484383400000002,6631.0
25.5015395,6504.0
25.5186956,6557.0
25.535851700000002,6647.0
25.5530078,6624.0
25.5701639,6696.0
25.587320000000002,6541.0
25.6044761,6720.0
25.6216322,6682.0
25.6387883,6544.0
25.6559444,6584.0
25.6731005,6600.0
25.6902566,6696.0
25.7074127,6620.0
25.7245688,6716.0
25.7417249,6603.0
25.758881000000002,6665.0
25.7760371,6737.0
25.7931932,6816.0
25.810349300000002,6889.0
25.8275054,6738.0
25.8446615,6662.0
25.861817600000002,6670.0
25.8789737,6664.0
25.8961298,6774.0
25.9132859,6820.0
25.930442,6902.0
25.9475981,6801.0
25.9647542,6761.0
25.9819103,6889.0
25.9990664,6959.0
26.0162225,6895.0
26.0333786,6804.0
26.0505347,6898.0
26.0676908,7132.0
26.084846900000002,6845.0
26.102003,7026.0
26.1191591,6943.0
26.136315200000002,6992.0
26.1534713,7137.0
26.1706274,7024.0
26.187783500000002,7209.0
26.2049396,7186.0
26.2220957,7149.0
26.2392518,7203.0
26.2564079,7299.0
26.273564,7153.0
26.2907201,7213.0
26.3078762,7401.0
26.3250323,7472.0
26.3421884,7320.0
26.359344500000002,7444.0
26.3765006,7470.0
26.3936567,7568.0
26.410812800000002,7563.0
26.4279689,7614.0
26.445125,7496.0
26.462281100000002,7573.0
26.4794372,7683.0
26.4965933,7711.0
26.513749400000002,7763.0
26.5309055,7831.0
26.5480616,7851.0
26.5652177,8212.0
26.5823738,7938.0
26.5995299,8055.0
26.616686,8220.0
26.6338421,8283.0
26.6509982,8381.0
26.6681543,8352.0
26.685310400000002,8448.0
26.7024665,8477.0
26.7196226,8768.0
26.736778700000002,9009.0
26.7539348,9023.0
26.7710909,9132.0
26.788247000000002,9150.0
26.8054031,9168.0
26.8225592,9465.0
26.8397153,9602.0
26.8568714,9893.0
26.8740275,9799.0
26.8911836,10101.0
26.9083397,10199.0
26.9254958,10621.0
26.9426519,10671.0
26.959808000000002,11170.0
26.9769641,11142.0
26.9941202,11777.0
27.011276300000002,11886.0
27.0284324,12309.0
27.0455885,12678.0
27.062744600000002,12545.0
27.0799007,13321.0
27.0970568,13457.0
27.114212900000002,13665.0
27.131369,14238.0
27.1485251,14628.0
27.1656812,14886.0
27.1828373,15247.0
27.1999934,15596.0
27.2171495,16194.0
27.2343056,16331.0
27.2514617,16769.0
27.2686178,16780.0
27.285773900000002,17259.0
27.30293,17562.0
27.3200861,17681.0
27.337242200000002,18018.0
27.3543983,18172.0
27.3715544,18327.0
27.388710500000002,18367.0
27.4058666,18598.0
27.4230227,18616.0
27.4401788,18727.0
27.4573349,18717.0
27.474491,18630.0
27.4916471,18701.0
27.5088032,18658.0
27.5259593,18658.0
27.5431154,18666.0
27.5602715,18525.0
27.5774276,18168.0
27.5945837,18320.0
27.611739800000002,18227.0
27.6288959,18232.0
27.646052,17855.0
27.663208100000002,17740.0
27.6803642,17384.0
27.6975203,17344.0
27.714676400000002,17352.0
27.7318325,16835.0
27.7489886,16956.0
27.7661447,16554.0
27.7833008,16332.0
27.8004569,15887.0
27.817613,15609.0
27.8347691,15492.0
27.8519252,15381.0
27.8690813,15107.0
27.886237400000002,14733.0
27.9033935,14407.0
27.9205496,14175.0
27.937705700000002,13673.0
27.9548618,13757.0
27.9720179,13518.0
27.989174000000002,13139.0
28.0063301,13021.0
28.0234862,12929.0
28.040642300000002,12307.0
28.0577984,12131.0
28.0749545,11947.0
28.0921106,11976.0
28.1092667,11618.0
28.1264228,11701.0
28.1435789,11332.0
28.160735,11299.0
28.1778911,11143.0
28.1950472,10942.0
28.212203300000002,10642.0
28.2293594,10625.0
28.2465155,10520.0
28.263671600000002,10374.0
28.2808277,10316.0
28.2979838,10270.0
28.315139900000002,10096.0
28.332296,10385.0
28.3494521,10248.0
28.3666082,10445.0
28.3837643,10770.0
28.4009204,10706.0
28.4180765,11154.0
28.4352326,11735.0
28.4523887,11672.0
28.4695448,11151.0
28.486700900000002,10608.0
28.503857,10366.0
28.5210131,10163.0
28.538169200000002,9613.0
28.5553253,9300.0
28.5724814,9037.0
28.589637500000002,9046.0
28.6067936,8648.0
28.6239497,8632.0
28.641105800000002,8558.0
28.6582619,8388.0
28.675418,8419.0
28.6925741,8289.0
28.7097302,8316.0
28.7268863,8269.0
28.7440424,8180.0
28.7611985,8175.0
28.7783546,8119.0
28.7955107,8048.0
28.812666800000002,7888.0
28.8298229,7915.0
28.846979,7972.0
28.864135100000002,7941.0
28.8812912,7860.0
28.8984473,7975.0
28.915603400000002,7667.0
28.9327595,7663.0
28.9499156,7616.0
28.9670717,7672.0
28.9842278,7665.0
29.0013839,7641.0
29.01854,7628.0
29.0356961,7499.0
29.0528522,7524.0
29.0700083,7639.0
29.087164400000002,7457.0
29.1043205,7386.0
29.1214766,7537.0
29.138632700000002,7408.0
29.1557888,7523.0
29.1729449,7431.0
29.190101000000002,7372.0
29.2072571,7244.0
29.2244132,7342.0
29.241569300000002,7358.0
29.2587254,7439.0
29.2758815,7166.0
29.2930376,7188.0
29.3101937,7210.0
29.3273498,7387.0
29.3445059,7184.0
29.361662,7087.0
29.3788181,7214.0
29.3959742,7065.0
29.413130300000002,7187.0
29.4302864,7068.0
29.4474425,7194.0
29.464598600000002,6982.0
29.4817547,7047.0
29.4989108,7037.0
29.516066900000002,7051.0
29.533223,6855.0
29.5503791,6967.0
29.567535200000002,6778.0
29.5846913,6877.0
29.6018474,6832.0
29.6190035,6898.0
29.6361596,6948.0
29.6533157,6913.0
29.6704718,6790.0
29.687627900000003,6785.0
29.704784,6701.0
29.7219401,6715.0
29.739096200000002,6855.0
29.7562523,6736.0
29.7734084,6669.0
29.790564500000002,6769.0
29.8077206,6639.0
29.8248767,6730.0
29.842032800000002,6820.0
29.8591889,6832.0
29.876345,6705.0
29.8935011,6675.0
29.9106572,6706.0
29.9278133,6735.0
29.9449694,6509.0
29.9621255,6727.0
29.9792816,6854.0
29.9964377,6612.0
30.013593800000002,6585.0
30.0307499,6503.0
30.047906,6528.0
30.065062100000002,6667.0
30.0822182,6506.0
30.0993743,6510.0
30.116530400000002,6551.0
30.1336865,6506.0
30.1508426,6637.0
30.167998700000002,6497.0
30.1851548,6592.0
30.2023109,6328.0
30.219467,6300.0
30.2366231,6367.0
30.2537792,6568.0
30.2709353,6394.0
30.2880914,6398.0
30.3052475,6380.0
30.3224036,6310.0
30.339559700000002,6477.0
30.3567158,6305.0
30.3738719,6314.0
30.391028000000002,6227.0
30.4081841,6347.0
30.4253402,6299.0
30.442496300000002,6471.0
30.4596524,6330.0
30.4768085,6216.0
30.4939646,6312.0
30.5111207,6259.0
30.5282768,6281.0
30.5454329,6162.0
30.562589,6385.0
30.5797451,6296.0
30.5969012,6164.0
30.614057300000002,6131.0
30.6312134,6156.0
30.6483695,6223.0
30.665525600000002,6381.0
30.6826817,6183.0
30.6998378,6121.0
30.716993900000002,6119.0
30.73415,6046.0
30.7513061,6158.0
30.768462200000002,6173.0
30.7856183,6246.0
30.8027744,6128.0
30.8199305,6124.0
30.8370866,6121.0
30.8542427,6071.0
30.8713988,6037.0
30.8885549,6116.0
30.905711,6018.0
30.9228671,6079.0
30.940023200000002,6108.0
30.9571793,6194.0
30.9743354,6105.0
30.991491500000002,6185.0
31.0086476,6070.0
31.0258037,5844.0
31.042959800000002,6243.0
31.0601159,6010.0
31.077272,6151.0
31.094428100000002,6212.0
31.1115842,6154.0
31.1287403,6130.0
31.1458964,6254.0
31.1630525,6108.0
31.1802086,6135.0
31.1973647,6067.0
31.214520800000003,6129.0
31.2316769,6226.0
31.248833,6131.0
31.265989100000002,6180.0
31.2831452,6130.0
31.3003013,6103.0
31.317457400000002,6186.0
31.3346135,6147.0
31.3517696,6165.0
31.368925700000002,6241.0
31.3860818,6175.0
31.4032379,6334.0
31.420394,6359.0
31.4375501,6316.0
31.4547062,6314.0
31.4718623,6240.0
31.4890184,6435.0
31.5061745,6396.0
31.5233306,6460.0
31.540486700000002,6492.0
31.5576428,6530.0
31.5747989,6494.0
31.591955000000002,6450.0
31.6091111,6530.0
31.6262672,6343.0
31.643423300000002,6582.0
31.6605794,6528.0
31.6777355,6633.0
31.694891600000002,6624.0
31.7120477,6779.0
31.7292038,6695.0
31.7463599,6748.0
31.763516,6864.0
31.7806721,6747.0
31.7978282,6730.0
31.814984300000003,6841.0
31.8321404,6904.0
31.8492965,7042.0
31.866452600000002,7047.0
31.8836087,6927.0
31.9007648,7038.0
31.917920900000002,7022.0
31.935077,7115.0
31.9522331,7166.0
31.969389200000002,7227.0
31.9865453,7099.0
32.0037014,7186.0
32.020857500000005,7221.0
32.0380136,7200.0
32.0551697,7265.0
32.0723258,7285.0
32.089481899999996,7093.0
32.106638000000004,7072.0
32.1237941,7061.0
32.140950200000006,7109.0
32.1581063,6945.0
32.1752624,6982.0
32.1924185,7090.0
32.209574599999996,6956.0
32.226730700000005,6975.0
32.2438868,6903.0
32.2610429,6909.0
32.278199,6927.0
32.2953551,6766.0
32.3125112,6773.0
32.3296673,6643.0
32.346823400000005,6722.0
32.3639795,6500.0
32.3811356,6521.0
32.3982917,6271.0
32.4154478,6372.0
32.432603900000004,6256.0
32.44976,6366.0
32.466916100000006,6231.0
32.4840722,6151.0
32.5012283,6106.0
32.5183844,6080.0
32.535540499999996,6012.0
32.552696600000004,6152.0
32.5698527,6057.0
32.5870088,5973.0
32.6041649,5983.0
32.621321,6080.0
32.6384771,5848.0
32.6556332,5903.0
32.672789300000005,5861.0
32.6899454,5796.0
32.7071015,5660.0
32.7242576,5789.0
32.7414137,5749.0
32.758569800000004,6053.0
32.7757259,5851.0
32.792882000000006,5760.0
32.8100381,5682.0
32.8271942,5679.0
32.8443503,5821.0
32.861506399999996,5836.0
32.878662500000004,5970.0
32.8958186,5975.0
32.9129747,5990.0
32.9301308,6479.0
32.9472869,6868.0
32.964443,6912.0
32.9815991,6486.0
32.998755200000005,6081.0
33.0159113,6093.0
33.0330674,6365.0
33.0502235,6579.0
33.0673796,6659.0
33.0845357,6409.0
33.1016918,6373.0
33.118847900000006,5849.0
33.136004,5519.0
33.1531601,5622.0
33.1703162,5650.0
33.187472299999996,5493.0
33.204628400000004,5262.0
33.2217845,5087.0
33.2389406,4996.0
33.2560967,4881.0
33.2732528,4742.0
33.2904089,4815.0
33.307565,4736.0
33.324721100000005,4765.0
33.3418772,4761.0
33.3590333,4629.0
33.3761894,4840.0
33.3933455,4552.0
33.4105016,4731.0
33.4276577,4694.0
33.444813800000006,4658.0
33.4619699,4755.0
33.479126,4598.0
33.4962821,4639.0
33.513438199999996,4510.0
33.530594300000004,4547.0
33.5477504,4476.0
33.5649065,4578.0
33.5820626,4582.0
33.5992187,4558.0
33.6163748,4552.0
33.6335309,4402.0
33.650687000000005,4423.0
33.6678431,4466.0
33.6849992,4594.0
33.7021553,4446.0
33.7193114,4244.0
33.7364675,4406.0
33.7536236,4368.0
33.770779700000006,4433.0
33.7879358,4368.0
33.8050919,4358.0
33.822248,4301.0
33.839404099999996,4415.0
33.856560200000004,4247.0
33.8737163,4316.0
33.8908724,4341.0
33.9080285,4478.0
33.9251846,4390.0
33.9423407,4305.0
33.9594968,4316.0
33.976652900000005,4360.0
33.993809,4379.0
34.0109651,4254.0
34.0281212,4339.0
34.0452773,4325.0
34.0624334,4289.0
34.0795895,4137.0
34.096745600000006,4326.0
34.1139017,4268.0
34.1310578,4235.0
34.1482139,4287.0
34.165369999999996,4217.0
34.182526100000004,4247.0
34.1996822,4254.0
34.2168383,4077.0
34.2339944,4201.0
34.2511505,4112.0
34.2683066,4247.0
34.2854627,4237.0
34.302618800000005,4156.0
34.3197749,4186.0
34.336931,4056.0
34.3540871,4127.0
34.3712432,4085.0
34.3883993,4231.0
34.4055554,4073.0
34.422711500000005,4319.0
34.4398676,4110.0
34.4570237,4152.0
34.4741798,4079.0
34.491335899999996,4096.0
34.508492000000004,4078.0
34.5256481,4128.0
34.542804200000006,4066.0
34.5599603,4048.0
34.5771164,4067.0
34.5942725,3982.0
34.611428599999996,4101.0
34.628584700000005,4051.0
34.6457408,4129.0
34.6628969,4084.0
34.680053,4069.0
34.6972091,4022.0
34.7143652,3998.0
34.7315213,3847.0
34.748677400000005,4020.0
34.7658335,3872.0
34.7829896,4044.0
34.8001457,3924.0
34.817301799999996,4011.0
34.834457900000004,3990.0
34.851614,3965.0
34.868770100000006,3991.0
34.8859262,3934.0
34.9030823,3842.0
34.9202384,3997.0
34.937394499999996,3996.0
34.954550600000005,3882.0
34.9717067,3825.0
34.9888628,3839.0
35.0060189,3936.0
35.023175,3966.0
35.0403311,3905.0
35.0574872,3907.0
35.074643300000005,3939.0
35.0917994,3775.0
35.1089555,3897.0
35.1261116,3893.0
35.1432677,3881.0
35.160423800000004,3905.0
35.1775799,3777.0
35.194736000000006,3787.0
35.2118921,3813.0
35.2290482,3873.0
35.2462043,3830.0
35.263360399999996,3906.0
35.280516500000004,3893.0
35.2976726,3928.0
35.3148287,3831.0
35.3319848,3795.0
35.3491409,3835.0
35.366297,3750.0
35.3834531,3765.0
35.400609200000005,3788.0
35.4177653,3776.0
35.4349214,3760.0
35.4520775,3665.0
35.4692336,3739.0
35.486389700000004,3643.0
35.5035458,3796.0
35.520701900000006,3705.0
35.537858,3767.0
35.5550141,3830.0
35.5721702,3746.0
35.589326299999996,3743.0
35.606482400000004,3673.0
35.6236385,3682.0
35.6407946,3663.0
35.6579507,3719.0
35.6751068,3775.0
35.6922629,3606.0
35.709419,3722.0
35.726575100000005,3682.0
35.7437312,3733.0
35.7608873,3689.0
35.7780434,3702.0
35.7951995,3747.0
35.812355600000004,3616.0
35.8295117,3545.0
35.846667800000006,3594.0
35.8638239,3669.0
35.88098,3645.0
35.8981361,3667.0
35.915292199999996,3555.0
35.932448300000004,3636.0
35.9496044,3645.0
35.9667605,3615.0
35.9839166,3647.0
36.0010727,3693.0
36.0182288,3751.0
36.0353849,3682.0
36.052541000000005,3539.0
36.0696971,3619.0
36.0868532,3659.0
36.1040093,3665.0
36.1211654,3601.0
36.1383215,3557.0
36.1554776,3533.0
36.172633700000006,3530.0
36.1897898,3511.0
36.2069459,3586.0
36.224102,3615.0
36.241258099999996,3542.0
36.258414200000004,3550.0
36.2755703,3495.0
36.2927264,3629.0
36.3098825,3495.0
36.3270386,3450.0
36.3441947,3554.0
36.3613508,3514.0
36.378506900000005,3579.0
36.395663,3519.0
36.4128191,3541.0
36.4299752,3579.0
36.4471313,3525.0
36.4642874,3534.0
36.4814435,3429.0
36.498599600000006,3480.0
36.5157557,3520.0
36.5329118,3471.0
36.5500679,3459.0
36.567223999999996,3417.0
36.584380100000004,3502.0
36.6015362,3510.0
36.6186923,3428.0
36.6358484,3482.0
36.6530045,3548.0
36.6701606,3451.0
36.6873167,3563.0
36.704472800000005,3457.0
36.7216289,3461.0
36.738785,3472.0
36.7559411,3570.0
36.7730972,3561.0
36.7902533,3422.0
36.8074094,3384.0
36.824565500000006,3509.0
36.8417216,3561.0
36.8588777,3525.0
36.8760338,3423.0
36.893189899999996,3458.0
36.910346000000004,3502.0
36.9275021,3501.0
36.9446582,3556.0
36.9618143,3494.0
36.9789704,3462.0
36.9961265,3445.0
37.013282600000004,3338.0
37.0304387,3454.0
37.0475948,3491.0
37.0647509,3524.0
37.081907,3498.0
37.0990631,3500.0
37.1162192,3456.0
37.133375300000004,3469.0
37.1505314,3484.0
37.1676875,3525.0
37.1848436,3484.0
37.2019997,3496.0
37.2191558,3588.0
37.236311900000004,3483.0
37.253468,3424.0
37.2706241,3576.0
37.2877802,3585.0
37.3049363,3439.0
37.3220924,3498.0
37.339248500000004,3511.0
37.3564046,3534.0
37.3735607,3502.0
37.3907168,3532.0
37.4078729,3598.0
37.425029,3682.0
37.4421851,3510.0
37.459341200000004,3630.0
37.4764973,3586.0
37.4936534,3635.0
37.5108095,3706.0
37.5279656,3608.0
37.5451217,3759.0
37.562277800000004,3833.0
37.5794339,3785.0
37.59659,3758.0
37.6137461,3810.0
37.6309022,3836.0
37.6480583,3680.0
37.6652144,3942.0
37.6823705,3821.0
37.6995266,3974.0
37.7166827,3944.0
37.7338388,4069.0
37.7509949,4025.0
37.768151,4070.0
37.785307100000004,4160.0
37.8024632,4285.0
37.8196193,4266.0
37.8367754,4433.0
37.8539315,4326.0
37.8710876,4466.0
37.888243700000004,4501.0
37.9053998,4606.0
37.9225559,4612.0
37.939712,4612.0
37.9568681,4761.0
37.9740242,4894.0
37.9911803,4957.0
38.0083364,4915.0
38.0254925,5020.0
38.0426486,5170.0
38.0598047,5167.0
38.0769608,5169.0
38.0941169,5211.0
38.111273000000004,5427.0
38.1284291,5293.0
38.1455852,5279.0
38.1627413,5392.0
38.1798974,5310.0
38.1970535,5312.0
38.214209600000004,5440.0
38.2313657,5556.0
38.2485218,5340.0
38.2656779,5311.0
38.282834,5291.0
38.2999901,5218.0
38.3171462,5143.0
38.334302300000004,5083.0
38.3514584,5004.0
38.3686145,5205.0
38.3857706,4982.0
38.4029267,4927.0
38.4200828,4948.0
38.437238900000004,4894.0
38.454395,4764.0
38.4715511,4650.0
38.4887072,4731.0
38.5058633,4605.0
38.5230194,4614.0
38.540175500000004,4615.0
38.5573316,4582.0
38.5744877,4418.0
38.5916438,4412.0
38.6087999,4412.0
38.625956,4306.0
38.6431121,4179.0
38.660268200000004,4330.0
38.6774243,4239.0
38.6945804,4141.0
38.7117365,4096.0
38.7288926,3962.0
38.7460487,3970.0
38.763204800000004,3919.0
38.7803609,3911.0
38.797517,3981.0
38.8146731,3899.0
38.8318292,3855.0
38.8489853,3820.0
38.866141400000004,3819.0
38.8832975,3744.0
38.9004536,3882.0
38.9176097,3791.0
38.9347658,3746.0
38.9519219,3700.0
38.969078,3817.0
38.986234100000004,3795.0
39.0033902,3665.0
39.0205463,3710.0
39.0377024,3671.0
39.0548585,3758.0
39.0720146,3728.0
39.089170700000004,3770.0
39.1063268,3651.0
39.1234829,3771.0
39.140639,3726.0
39.1577951,3746.0
39.1749512,3816.0
39.1921073,3835.0
39.2092634,3765.0
39.2264195,3869.0
39.2435756,3916.0
39.2607317,3827.0
39.2778878,3869.0
39.2950439,4064.0
39.312200000000004,3965.0
39.3293561,4088.0
39.3465122,4048.0
39.3636683,4032.0
39.3808244,4116.0
39.3979805,4246.0
39.415136600000004,4331.0
39.4322927,4162.0
39.4494488,4408.0
39.4666049,4499.0
39.483761,4405.0
39.5009171,4547.0
39.5180732,4684.0
39.535229300000005,4757.0
39.5523854,4702.0
39.5695415,4921.0
39.5866976,4883.0
39.6038537,4996.0
39.6210098,4924.0
39.638165900000004,5017.0
39.655322,5117.0
39.6724781,5297.0
39.6896342,5350.0
39.7067903,5109.0
39.7239464,5373.0
39.741102500000004,5441.0
39.7582586,5433.0
39.7754147,5508.0
39.7925708,5631.0
39.8097269,5393.0
39.826883,5350.0
39.8440391,5362.0
39.861195200000004,5475.0
39.8783513,5490.0
39.8955074,5315.0
39.9126635,5297.0
39.9298196,5187.0
39.9469757,5231.0
39.964131800000004,5279.0
39.9812879,5025.0
39.998444,4977.0
40.0156001,5129.0
40.0327562,5006.0
40.0499123,4904.0
40.067068400000004,4787.0
40.0842245,4733.0
40.1013806,4627.0
40.1185367,4510.0
40.1356928,4470.0
40.1528489,4424.0
40.170005,4387.0
40.187161100000004,4278.0
40.2043172,4198.0
40.2214733,4236.0
40.2386294,3995.0
40.2557855,4102.0
40.2729416,4004.0
40.290097700000004,3979.0
40.3072538,3763.0
40.3244099,3786.0
40.341566,3724.0
40.3587221,3614.0
40.3758782,3722.0
40.393034300000004,3580.0
40.4101904,3655.0
40.4273465,3569.0
40.4445026,3671.0
40.4616587,3592.0
40.4788148,3403.0
40.4959709,3472.0
40.513127000000004,3364.0
40.5302831,3386.0
40.5474392,3424.0
40.5645953,3385.0
40.5817514,3452.0
40.5989075,3278.0
40.616063600000004,3377.0
40.6332197,3234.0
40.6503758,3221.0
40.6675319,3276.0
40.684688,3256.0
40.7018441,3190.0
40.7190002,3155.0
40.7361563,3158.0
40.7533124,3175.0
40.7704685,3224.0
40.7876246,3353.0
40.8047807,3210.0
40.8219368,3052.0
40.839092900000004,3193.0
40.856249,3204.0
40.8734051,3172.0
40.8905612,3157.0
40.9077173,3094.0
40.9248734,3123.0
40.942029500000004,3105.0
40.9591856,3145.0
40.9763417,3137.0
40.9934978,3182.0
41.0106539,3152.0
41.02781,3005.0
41.0449661,3115.0
41.062122200000005,3041.0
41.0792783,3009.0
41.0964344,3119.0
41.1135905,2993.0
41.1307466,2998.0
41.1479027,3125.0
41.165058800000004,2962.0
41.1822149,2875.0
41.199371,3174.0
41.2165271,3074.0
41.2336832,2979.0
41.2508393,3071.0
41.267995400000004,3061.0
41.2851515,2983.0
41.3023076,2980.0
41.3194637,2979.0
41.3366198,3059.0
41.3537759,3028.0
41.370932,3070.0
41.388088100000004,3107.0
41.4052442,2947.0
41.4224003,3060.0
41.4395564,3023.0
41.4567125,3078.0
41.4738686,3091.0
41.491024700000004,3026.0
41.5081808,3001.0
41.5253369,3045.0
41.542493,2984.0
41.5596491,3098.0
41.5768052,3059.0
41.593961300000004,2982.0
41.6111174,3047.0
41.6282735,3066.0
41.6454296,3020.0
41.6625857,3024.0
41.6797418,3025.0
41.6968979,3104.0
41.714054000000004,2996.0
41.7312101,3001.0
41.7483662,2987.0
41.7655223,3032.0
41.7826784,3139.0
41.7998345,2970.0
41.816990600000004,3042.0
41.8341467,2998.0
41.8513028,2966.0
41.8684589,3111.0
41.885615,2974.0
41.9027711,2994.0
41.919927200000004,3051.0
41.9370833,2979.0
41.9542394,2950.0
41.9713955,3014.0
41.9885516,3000.0
42.0057077,3019.0
42.0228638,3014.0
42.040019900000004,3058.0
42.057176,3078.0
42.0743321,3030.0
42.0914882,3054.0
42.1086443,3069.0
42.1258004,2962.0
42.142956500000004,3035.0
42.1601126,2975.0
42.1772687,3051.0
42.1944248,2903.0
42.2115809,3027.0
42.228737,3039.0
42.2458931,3045.0
42.263049200000005,3014.0
42.2802053,3030.0
42.2973614,3107.0
42.3145175,2983.0
42.3316736,3036.0
42.3488297,3000.0
42.365985800000004,2953.0
42.3831419,3044.0
42.400298,2931.0
42.4174541,3062.0
42.4346102,3021.0
42.4517663,2963.0
42.468922400000004,3065.0
42.4860785,3081.0
42.5032346,3022.0
42.5203907,3080.0
42.5375468,3085.0
42.5547029,2963.0
42.571859,3014.0
42.589015100000005,3015.0
42.6061712,3124.0
42.6233273,3019.0
42.6404834,2996.0
42.6576395,2949.0
42.6747956,3107.0
42.691951700000004,3009.0
42.7091078,3069.0
42.7262639,3023.0
42.74342,3088.0
42.7605761,3192.0
42.7777322,3098.0
42.794888300000004,3034.0
42.8120444,3103.0
42.8292005,3044.0
42.8463566,2921.0
42.8635127,3097.0
42.8806688,2935.0
42.8978249,3087.0
42.914981000000004,3081.0
42.9321371,3059.0
42.9492932,3041.0
42.9664493,3014.0
42.9836054,2945.0
43.0007615,3037.0
43.017917600000004,2995.0
43.0350737,2976.0
43.0522298,2974.0
43.0693859,3059.0
43.086542,3069.0
43.1036981,3049.0
43.120854200000004,2985.0
43.1380103,2944.0
43.1551664,3143.0
43.1723225,3005.0
43.1894786,3111.0
43.2066347,3091.0
43.2237908,3054.0
43.240946900000004,3092.0
43.258103,3078.0
43.2752591,3074.0
43.2924152,3086.0
43.3095713,3131.0
43.3267274,3064.0
43.343883500000004,3100.0
43.3610396,3038.0
43.3781957,3212.0
43.3953518,3086.0
43.4125079,3085.0
43.429664,3091.0
43.446820100000004,3064.0
43.4639762,3128.0
43.4811323,3108.0
43.4982884,3085.0
43.5154445,3088.0
43.5326006,3059.0
43.5497567,3077.0
43.566912800000004,3133.0
43.5840689,3058.0
43.601225,3149.0
43.6183811,3106.0
43.6355372,3157.0
43.6526933,3108.0
43.669849400000004,3089.0
43.6870055,3019.0
43.7041616,3173.0
43.7213177,3108.0
43.7384738,3125.0
43.7556299,3089.0
43.772786,3091.0
43.789942100000005,3077.0
43.8070982,3266.0
43.8242543,3097.0
43.8414104,3034.0
43.8585665,3166.0
43.8757226,3125.0
43.892878700000004,3226.0
43.9100348,3097.0
43.9271909,3177.0
43.944347,3087.0
43.9615031,3171.0
43.9786592,3182.0
43.995815300000004,3163.0
44.0129714,3078.0
44.0301275,3179.0
44.0472836,3094.0
44.0644397,3162.0
44.0815958,3214.0
44.0987519,3182.0
44.115908000000005,3176.0
44.1330641,3237.0
44.1502202,3231.0
44.1673763,3247.0
44.1845324,3222.0
44.2016885,3254.0
44.218844600000004,3327.0
44.2360007,3250.0
44.2531568,3255.0
44.2703129,3274.0
44.287469,3159.0
44.3046251,3237.0
44.321781200000004,3271.0
44.3389373,3343.0
44.3560934,3255.0
44.3732495,3296.0
44.3904056,3401.0
44.4075617,3391.0
44.4247178,3374.0
44.441873900000004,3311.0
44.45903,3389.0
44.4761861,3243.0
44.4933422,3468.0
44.5104983,3354.0
44.5276544,3403.0
44.544810500000004,3399.0
44.5619666,3430.0
44.5791227,3477.0
44.5962788,3460.0
44.6134349,3545.0
44.630591,3565.0
44.647747100000004,3569.0
44.6649032,3591.0
44.6820593,3672.0
44.6992154,3577.0
44.7163715,3639.0
44.7335276,3643.0
44.7506837,3582.0
44.767839800000004,3629.0
44.7849959,3610.0
44.802152,3713.0
44.8193081,3663.0
44.8364642,3666.0
44.8536203,3772.0
44.870776400000004,3765.0
44.8879325,3672.0
44.9050886,3578.0
44.9222447,3758.0
44.9394008,3732.0
44.9565569,3786.0
44.973713000000004,3656.0
44.990869100000005,3819.0
45.0080252,3838.0
45.0251813,3644.0
45.0423374,3672.0
45.0594935,3759.0
45.0766496,3757.0
45.093805700000004,3792.0
45.1109618,3692.0
45.1281179,3795.0
45.145274,3810.0
45.1624301,3816.0
45.1795862,3763.0
45.196742300000004,3838.0
45.2138984,3836.0
45.2310545,3887.0
45.2482106,3883.0
45.2653667,4003.0
45.2825228,3897.0
45.2996789,3859.0
45.316835000000005,3965.0
45.3339911,4034.0
45.3511472,4131.0
45.3683033,4013.0
45.3854594,3963.0
45.4026155,4091.0
45.419771600000004,4081.0
45.4369277,4203.0
45.4540838,4177.0
45.4712399,4285.0
45.488396,4303.0
45.5055521,4239.0
45.522708200000004,4375.0
45.5398643,4428.0
45.5570204,4319.0
45.5741765,4570.0
45.5913326,4414.0
45.6084887,4497.0
45.6256448,4484.0
45.642800900000005,4555.0
45.659957,4728.0
45.6771131,4685.0
45.6942692,4759.0
45.7114253,4716.0
45.7285814,4799.0
45.745737500000004,4771.0
45.7628936,5028.0
45.7800497,4983.0
45.7972058,5052.0
45.8143619,5048.0
45.831518,5176.0
45.848674100000004,5115.0
45.8658302,5156.0
45.8829863,5217.0
45.9001424,5187.0
45.9172985,5389.0
45.9344546,5238.0
45.9516107,5278.0
45.968766800000004,5366.0
45.9859229,5474.0
46.003079,5416.0
46.0202351,5470.0
46.0373912,5289.0
46.0545473,5307.0
46.071703400000004,5373.0
46.0888595,5237.0
46.1060156,5367.0
46.1231717,5290.0
46.1403278,5303.0
46.1574839,5295.0
46.174640000000004,5350.0
46.1917961,5210.0
46.2089522,5253.0
46.2261083,5250.0
46.2432644,5116.0
46.2604205,5054.0
46.2775766,5020.0
46.294732700000004,5046.0
46.3118888,4912.0
46.3290449,4939.0
46.346201,4765.0
46.3633571,4734.0
46.3805132,4723.0
46.397669300000004,4633.0
46.4148254,4569.0
46.4319815,4590.0
46.4491376,4538.0
46.4662937,4528.0
46.4834498,4583.0
46.500605900000004,4508.0
46.517762000000005,4334.0
46.5349181,4400.0
46.5520742,4290.0
46.5692303,4258.0
46.5863864,4197.0
46.6035425,4118.0
46.620698600000004,4123.0
46.6378547,4187.0
46.6550108,4129.0
46.6721669,3928.0
46.689323,4005.0
46.7064791,4008.0
46.723635200000004,3978.0
46.7407913,3932.0
46.7579474,3903.0
46.7751035,3965.0
46.7922596,3839.0
46.8094157,3868.0
46.8265718,3770.0
46.843727900000005,3749.0
46.860884,3717.0
46.8780401,3762.0
46.8951962,3773.0
46.9123523,3805.0
46.9295084,3735.0
46.946664500000004,3675.0
46.9638206,3727.0
46.9809767,3653.0
46.9981328,3838.0
47.0152889,3710.0
47.032445,3777.0
47.049601100000004,3940.0
47.0667572,4100.0
47.0839133,4167.0
47.1010694,4153.0
47.1182255,4239.0
47.1353816,4242.0
47.1525377,4351.0
47.169693800000005,4568.0
47.1868499,4736.0
47.204006,4793.0
47.2211621,4541.0
47.2383182,4427.0
47.2554743,4288.0
47.272630400000004,4170.0
47.2897865,4329.0
47.3069426,4292.0
47.3240987,4239.0
47.3412548,4011.0
47.3584109,3832.0
47.375567000000004,3702.0
47.3927231,3698.0
47.4098792,3554.0
47.4270353,3507.0
47.4441914,3541.0
47.4613475,3486.0
47.4785036,3357.0
47.495659700000004,3423.0
47.5128158,3462.0
47.5299719,3308.0
47.547128,3254.0
47.5642841,3361.0
47.5814402,3281.0
47.598596300000004,3299.0
47.6157524,3245.0
47.6329085,3242.0
47.6500646,3336.0
47.6672207,3274.0
47.6843768,3200.0
47.701532900000004,3165.0
47.718689000000005,3152.0
47.7358451,3331.0
47.7530012,3293.0
47.7701573,3199.0
47.7873134,3260.0
47.8044695,3295.0
47.821625600000004,3254.0
47.8387817,3235.0
47.8559378,3243.0
47.8730939,3184.0
47.89025,3270.0
47.9074061,3262.0
47.924562200000004,3282.0
47.9417183,3331.0
47.9588744,3270.0
47.9760305,3229.0
47.9931866,3188.0
48.0103427,3199.0
48.027498800000004,3180.0
48.044654900000005,3142.0
48.061811,3299.0
48.0789671,3250.0
48.0961232,3226.0
48.1132793,3322.0
48.1304354,3320.0
48.147591500000004,3283.0
48.1647476,3264.0
48.1819037,3333.0
48.1990598,3260.0
48.2162159,3417.0
48.233372,3325.0
48.250528100000004,3297.0
48.2676842,3395.0
48.2848403,3322.0
48.3019964,3374.0
48.3191525,3401.0
48.3363086,3367.0
48.3534647,3325.0
48.370620800000005,3395.0
48.3877769,3307.0
48.404933,3388.0
48.4220891,3459.0
48.4392452,3355.0
48.4564013,3493.0
48.473557400000004,3413.0
48.4907135,3464.0
48.5078696,3463.0
48.5250257,3645.0
48.5421818,3582.0
48.5593379,3614.0
48.576494000000004,3628.0
48.5936501,3645.0
48.6108062,3812.0
48.6279623,3641.0
48.6451184,3787.0
48.6622745,3894.0
48.6794306,3733.0
48.696586700000005,3893.0
48.7137428,3892.0
48.7308989,3875.0
48.748055,3779.0
48.7652111,3871.0
48.7823672,4020.0
48.799523300000004,3977.0
48.8166794,4066.0
48.8338355,3914.0
48.8509916,3995.0
48.8681477,4004.0
48.8853038,4023.0
48.902459900000004,4022.0
48.919616000000005,4154.0
48.9367721,4162.0
48.9539282,4169.0
48.9710843,4023.0
48.9882404,4096.0
49.0053965,4014.0
49.022552600000004,4130.0
49.0397087,3967.0
49.0568648,4005.0
49.0740209,3945.0
49.091177,4050.0
49.1083331,3909.0
49.125489200000004,3922.0
49.1426453,3922.0
49.1598014,3909.0
49.1769575,3848.0
49.1941136,3759.0
49.2112697,3804.0
49.228425800000004,3727.0
49.245581900000005,3735.0
49.262738,3673.0
49.2798941,3601.0
49.2970502,3686.0
49.3142063,3572.0
49.3313624,3517.0
49.348518500000004,3518.0
49.3656746,3550.0
49.3828307,3616.0
49.3999868,3415.0
49.4171429,3353.0
49.434299,3374.0
49.451455100000004,3337.0
49.4686112,3411.0
49.4857673,3342.0
49.5029234,3293.0
49.5200795,3338.0
49.5372356,3315.0
49.554391700000004,3282.0
49.571547800000005,3283.0
49.5887039,3249.0
49.60586,3313.0
49.6230161,3176.0
49.6401722,3298.0
49.6573283,3236.0
49.674484400000004,3064.0
49.6916405,3125.0
49.7087966,3129.0
49.7259527,3113.0
49.7431088,3110.0
49.7602649,3262.0
49.777421000000004,3110.0
49.7945771,3088.0
49.8117332,3118.0
49.8288893,3108.0
49.8460454,3084.0
49.8632015,3091.0
49.8803576,3054.0
49.897513700000005,3124.0
49.9146698,2987.0
49.9318259,3046.0
49.948982,3099.0
49.9661381,2931.0
49.9832942,2968.0
50.000450300000004,3060.0
50.0176064,2988.0
50.0347625,3093.0
50.0519186,3090.0
50.0690747,2966.0
50.0862308,3064.0
50.103386900000004,3035.0
50.120543,3002.0
50.1376991,3024.0
50.1548552,3026.0
50.1720113,2953.0
50.1891674,3130.0
50.2063235,3039.0
50.223479600000005,2988.0
50.2406357,2976.0
50.2577918,2969.0
50.2749479,3033.0
50.292104,2940.0
50.3092601,2937.0
50.326416200000004,2988.0
50.3435723,3039.0
50.3607284,2918.0
50.3778845,3048.0
50.3950406,2964.0
50.4121967,2908.0
50.429352800000004,2939.0
50.446508900000005,2848.0
50.463665,3041.0
50.4808211,2958.0
50.4979772,2985.0
50.5151333,2978.0
50.5322894,2971.0
50.549445500000004,3009.0
50.5666016,2990.0
50.5837577,2988.0
50.6009138,2992.0
50.6180699,3005.0
50.635226,2921.0
50.652382100000004,3026.0
50.6695382,2959.0
50.6866943,2988.0
50.7038504,2956.0
50.7210065,2939.0
50.7381626,2930.0
50.755318700000004,3058.0
50.772474800000005,3045.0
50.7896309,2977.0
50.806787,2952.0
50.8239431,2950.0
50.8410992,3006.0
50.8582553,2905.0
50.875411400000004,2917.0
50.8925675,2919.0
50.9097236,2829.0
50.9268797,2875.0
50.9440358,2858.0
50.9611919,2866.0
50.978348000000004,2893.0
50.9955041,2938.0
51.0126602,2974.0
51.0298163,3031.0
51.0469724,2979.0
51.0641285,2976.0
51.081284600000004,2994.0
51.098440700000005,2970.0
51.1155968,2953.0
51.1327529,2999.0
51.149909,2937.0
51.1670651,2955.0
51.1842212,2889.0
51.201377300000004,2894.0
51.2185334,2828.0
51.2356895,2904.0
51.2528456,2840.0
51.2700017,2998.0
51.2871578,2912.0
51.304313900000004,2869.0
51.32147,2963.0
51.3386261,2846.0
51.3557822,3037.0
51.3729383,2887.0
51.3900944,2971.0
51.4072505,2847.0
51.424406600000005,2976.0
51.4415627,2878.0
51.4587188,2947.0
51.4758749,2916.0
51.493031,2928.0
51.5101871,2880.0
51.527343200000004,2911.0
51.5444993,2980.0
51.5616554,2920.0
51.5788115,2973.0
51.5959676,2861.0
51.6131237,2933.0
51.630279800000004,2936.0
51.647435900000005,2819.0
51.664592,2868.0
51.6817481,2878.0
51.6989042,2834.0
51.7160603,2872.0
51.7332164,2913.0
51.750372500000005,2972.0
51.7675286,3010.0
51.7846847,3062.0
51.8018408,2949.0
51.8189969,2882.0
51.836153,2882.0
51.853309100000004,2900.0
51.8704652,3059.0
51.8876213,2942.0
51.9047774,2954.0
51.9219335,2931.0
51.9390896,2983.0
51.956245700000004,2936.0
51.973401800000005,3060.0
51.9905579,3001.0
52.007714,2923.0
52.0248701,2890.0
52.0420262,2893.0
52.0591823,2890.0
52.076338400000004,2874.0
52.0934945,2855.0
52.1106506,3010.0
52.1278067,2864.0
52.1449628,2962.0
52.1621189,2978.0
52.179275000000004,3019.0
52.1964311,3063.0
52.2135872,2997.0
52.2307433,3010.0
52.2478994,2994.0
52.2650555,3052.0
52.282211600000004,3011.0
52.299367700000005,2918.0
52.3165238,2947.0
52.3336799,3001.0
52.350836,2920.0
52.3679921,2958.0
52.3851482,2952.0
52.402304300000004,2991.0
52.4194604,2980.0
52.4366165,2958.0
52.4537726,2950.0
52.4709287,2943.0
52.4880848,2989.0
52.505240900000004,2935.0
52.522397,2959.0
52.5395531,2968.0
52.5567092,3025.0
52.5738653,2980.0
52.5910214,2982.0
52.608177500000004,3001.0
52.625333600000005,2985.0
52.6424897,3039.0
52.6596458,2949.0
52.6768019,2975.0
52.693958,2986.0
52.7111141,3078.0
52.728270200000004,3017.0
52.7454263,2958.0
52.7625824,2957.0
52.7797385,2979.0
52.7968946,3079.0
52.8140507,2879.0
52.831206800000004,3057.0
52.8483629,2999.0
52.865519,2919.0
52.8826751,3041.0
52.8998312,3161.0
52.9169873,2965.0
52.9341434,2998.0
52.951299500000005,3031.0
52.9684556,2975.0
52.9856117,3043.0
53.0027678,3047.0
53.0199239,3079.0
53.03708,3061.0
53.054236100000004,3055.0
53.0713922,2982.0
53.0885483,3085.0
53.1057044,3080.0
53.1228605,3083.0
53.1400166,3193.0
53.157172700000004,3044.0
53.174328800000005,3121.0
53.1914849,3079.0
53.208641,3034.0
53.2257971,3188.0
53.2429532,3070.0
53.2601093,3132.0
53.277265400000005,3076.0
53.2944215,3168.0
53.3115776,3112.0
53.3287337,3286.0
53.3458898,3061.0
53.3630459,3081.0
53.380202000000004,3123.0
53.3973581,3116.0
53.4145142,3092.0
53.4316703,3127.0
53.4488264,3124.0
53.4659825,3176.0
53.483138600000004,3331.0
53.500294700000005,3232.0
53.5174508,3175.0
53.5346069,3280.0
53.551763,3172.0
53.5689191,3296.0
53.5860752,3366.0
53.603231300000004,3286.0
53.6203874,3263.0
53.6375435,3375.0
53.6546996,3465.0
53.6718557,3443.0
53.6890118,3380.0
53.706167900000004,3491.0
53.723324,3419.0
53.7404801,3456.0
53.7576362,3410.0
53.7747923,3470.0
53.7919484,3423.0
53.809104500000004,3388.0
53.826260600000005,3535.0
53.8434167,3628.0
53.8605728,3579.0
53.8777289,3666.0
53.894885,3572.0
53.9120411,3677.0
53.929197200000004,3657.0
53.9463533,3637.0
53.9635094,3758.0
53.9806655,3558.0
53.9978216,3762.0
54.0149777,3702.0
54.032133800000004,3867.0
54.0492899,3836.0
54.066446,3883.0
54.0836021,3917.0
54.1007582,3939.0
54.1179143,3937.0
54.135070400000004,4124.0
54.152226500000005,4105.0
54.1693826,4119.0
54.1865387,4058.0
54.2036948,4109.0
54.2208509,4044.0
54.238007,4114.0
54.255163100000004,4241.0
54.2723192,4253.0
54.2894753,4310.0
54.3066314,4361.0
54.3237875,4294.0
54.3409436,4469.0
54.358099700000004,4384.0
54.375255800000005,4384.0
54.3924119,4375.0
54.409568,4418.0
54.4267241,4375.0
54.4438802,4398.0
54.4610363,4409.0
54.478192400000005,4494.0
54.4953485,4546.0
54.5125046,4295.0
54.5296607,4584.0
54.5468168,4492.0
54.5639729,4418.0
54.581129000000004,4350.0
54.5982851,4339.0
54.6154412,4308.0
54.6325973,4357.0
54.6497534,4248.0
54.6669095,4313.0
54.684065600000004,4197.0
54.701221700000005,4221.0
54.7183778,4272.0
54.7355339,4144.0
54.75269,4131.0
54.7698461,4203.0
54.7870022,4165.0
54.804158300000005,4074.0
54.8213144,3948.0
54.8384705,4043.0
54.8556266,4072.0
54.8727827,3888.0
54.8899388,3937.0
54.907094900000004,3816.0
54.924251,3888.0
54.9414071,3968.0
54.9585632,3816.0
54.9757193,3728.0
54.9928754,3749.0
55.010031500000004,3831.0
55.027187600000005,3695.0
55.0443437,3752.0
55.0614998,3658.0
55.0786559,3657.0
55.095812,3579.0
55.1129681,3727.0
55.130124200000004,3673.0
55.1472803,3507.0
55.1644364,3576.0
55.1815925,3532.0
55.1987486,3480.0
55.2159047,3483.0
55.233060800000004,3477.0
55.2502169,3438.0
55.267373,3435.0
55.2845291,3476.0
55.3016852,3473.0
55.3188413,3492.0
55.335997400000004,3422.0
55.353153500000005,3409.0
55.3703096,3353.0
55.3874657,3439.0
55.4046218,3338.0
55.4217779,3332.0
55.438934,3384.0
55.456090100000004,3359.0
55.4732462,3359.0
55.4904023,3487.0
55.5075584,3346.0
55.5247145,3298.0
55.5418706,3386.0
55.559026700000004,3469.0
55.5761828,3300.0
55.5933389,3326.0
55.610495,3447.0
55.6276511,3356.0
55.6448072,3467.0
55.661963300000004,3423.0
55.679119400000005,3505.0
55.6962755,3470.0
55.7134316,3403.0
55.7305877,3643.0
55.7477438,3600.0
55.7648999,3689.0
55.782056000000004,3780.0
55.7992121,3853.0
55.8163682,4068.0
55.8335243,4047.0
55.8506804,3751.0
55.8678365,3770.0
55.884992600000004,3842.0
55.902148700000005,3935.0
55.9193048,4171.0
55.9364609,4296.0
55.953617,4509.0
55.9707731,4621.0
55.9879292,4493.0
56.005085300000005,4233.0
56.0222414,4069.0
56.0393975,3940.0
56.0565536,4056.0
56.0737097,4046.0
56.0908658,4251.0
56.108021900000004,4675.0
56.125178,4904.0
56.1423341,5159.0
56.1594902,4870.0
56.1766463,4454.0
56.1938024,4171.0
56.210958500000004,4035.0
56.228114600000005,3957.0
56.2452707,4025.0
56.2624268,4141.0
56.2795829,4181.0
56.296739,4102.0
56.3138951,4131.0
56.331051200000005,4009.0
56.3482073,3898.0
56.3653634,3881.0
56.3825195,3704.0
56.3996756,3590.0
56.4168317,3697.0
56.433987800000004,3695.0
56.4511439,3581.0
56.4683,3581.0
56.4854561,3637.0
56.5026122,3606.0
56.5197683,3464.0
56.536924400000004,3503.0
56.554080500000005,3521.0
56.5712366,3544.0
56.5883927,3497.0
56.6055488,3570.0
56.6227049,3523.0
56.639861,3540.0
56.657017100000004,3425.0
56.6741732,3388.0
56.6913293,3384.0
56.7084854,3400.0
56.7256415,3418.0
56.7427976,3449.0
56.759953700000004,3396.0
56.7771098,3399.0
56.7942659,3325.0
56.811422,3432.0
56.8285781,3345.0
56.8457342,3325.0
56.862890300000004,3396.0
56.880046400000005,3373.0
56.8972025,3301.0
56.9143586,3316.0
56.9315147,3440.0
56.9486708,3370.0
56.9658269,3437.0
56.982983000000004,3449.0
57.0001391,3358.0
57.0172952,3372.0
57.0344513,3380.0
57.0516074,3240.0
57.0687635,3330.0
57.085919600000004,3257.0
57.103075700000005,3408.0
57.1202318,3355.0
57.1373879,3381.0
57.154544,3280.0
57.1717001,3255.0
57.188856200000004,3252.0
57.206012300000005,3299.0
57.2231684,3228.0
57.2403245,3179.0
57.2574806,3281.0
57.2746367,3264.0
57.2917928,3297.0
57.308948900000004,3338.0
57.326105,3303.0
57.3432611,3144.0
57.3604172,3160.0
57.3775733,3220.0
57.3947294,3122.0
57.411885500000004,3212.0
57.429041600000005,3134.0
57.4461977,3154.0
57.4633538,3082.0
57.4805099,3181.0
57.497666,3108.0
57.5148221,3083.0
57.531978200000005,3149.0
57.5491343,3043.0
57.5662904,3118.0
57.5834465,3045.0
57.6006026,3092.0
57.6177587,2995.0
57.634914800000004,3025.0
57.6520709,2997.0
57.669227,3040.0
57.6863831,3043.0
57.7035392,2987.0
57.7206953,3049.0
57.737851400000004,3016.0
57.755007500000005,2913.0
57.7721636,2920.0
57.7893197,2916.0
57.8064758,2931.0
57.8236319,2889.0
57.840788,2957.0
57.857944100000005,2986.0
57.8751002,2924.0
57.8922563,2767.0
57.9094124,2943.0
57.9265685,2742.0
57.9437246,2962.0
57.960880700000004,2800.0
57.9780368,2779.0
57.9951929,2936.0
58.012349,2826.0
58.0295051,2902.0
58.0466612,2779.0
58.063817300000004,2848.0
58.080973400000005,2930.0
58.0981295,2843.0
58.1152856,2807.0
58.1324417,2788.0
58.1495978,2882.0
58.1667539,2760.0
58.183910000000004,2895.0
58.2010661,2710.0
58.2182222,2754.0
58.2353783,2844.0
58.2525344,2808.0
58.2696905,2873.0
58.286846600000004,2851.0
58.3040027,2797.0
58.3211588,2834.0
58.3383149,2810.0
58.355471,2737.0
58.3726271,2711.0
58.389783200000004,2791.0
58.406939300000005,2925.0
58.4240954,2773.0
58.4412515,2753.0
58.4584076,2818.0
58.4755637,2726.0
58.4927198,2762.0
58.509875900000004,2721.0
58.527032,2787.0
58.5441881,2759.0
58.5613442,2798.0
58.5785003,2754.0
58.5956564,2807.0
58.612812500000004,2930.0
58.629968600000005,2911.0
58.6471247,2964.0
58.6642808,3073.0
58.6814369,2890.0
58.698593,3005.0
58.715749100000004,2807.0
58.732905200000005,2882.0
58.7500613,2736.0
58.7672174,2877.0
58.7843735,2933.0
58.8015296,2775.0
58.8186857,2852.0
58.835841800000004,2950.0
58.8529979,2904.0
58.870154,2880.0
58.8873101,2746.0
58.9044662,2864.0
58.9216223,2798.0
58.938778400000004,2709.0
58.955934500000005,2882.0
58.9730906,2768.0
58.9902467,2785.0
59.0074028,2666.0
59.0245589,2757.0
59.041715,2691.0
59.058871100000005,2792.0
59.0760272,2762.0
59.0931833,2642.0
59.1103394,2788.0
59.1274955,2707.0
59.1446516,2725.0
59.161807700000004,2678.0
59.1789638,2800.0
59.1961199,2672.0
59.213276,2806.0
59.2304321,2808.0
59.2475882,2737.0
59.264744300000004,2827.0
59.281900400000005,2880.0
59.2990565,2819.0
59.3162126,2656.0
59.3333687,2776.0
59.3505248,2833.0
59.3676809,2754.0
59.384837000000005,2669.0
59.4019931,2797.0
59.4191492,2763.0
59.4363053,2825.0
59.4534614,2853.0
59.4706175,2751.0
59.487773600000004,2820.0
59.5049297,2792.0
59.5220858,2806.0
59.5392419,2715.0
59.556398,2825.0
59.5735541,2722.0
59.590710200000004,2820.0
59.607866300000005,2749.0
59.6250224,2897.0
59.6421785,2727.0
59.6593346,2838.0
59.6764907,2845.0
59.6936468,2809.0
59.710802900000004,2841.0
59.727959,2844.0
59.7451151,2886.0
59.7622712,2793.0
59.7794273,2811.0
59.7965834,2814.0
59.813739500000004,2816.0
59.830895600000005,2775.0
59.8480517,2731.0
59.8652078,2749.0
59.8823639,2721.0
59.89952,2761.0
59.916676100000004,2803.0
59.933832200000005,2724.0
59.9509883,2760.0
59.9681444,2744.0
59.9853005,2715.0
60.0024566,2663.0
60.0196127,2680.0
60.036768800000004,2694.0
