5.0,28126.0
5.0171561,27738.0
5.0343122,27572.0
5.0514683,27300.0
5.0686244,27355.0
5.0857805,26694.0
5.1029366,26639.0
5.1200927,26653.0
5.1372488,26472.0
5.1544049,26285.0
5.171561,25917.0
5.1887171,25901.0
5.2058732,25356.0
5.2230293,25630.0
5.2401854,25297.0
5.2573415,25080.0
5.2744976,24736.0
5.2916537,24574.0
5.3088098,24717.0
5.3259659,24237.0
5.343122,24090.0
5.3602781,23943.0
5.3774342,23728.0
5.3945903,23758.0
5.4117464,23617.0
5.4289025,23313.0
5.4460586,23138.0
5.4632147,22901.0
5.4803708,22869.0
5.4975269,22649.0
5.514683,22362.0
5.5318391,22170.0
5.5489952,22410.0
5.5661513,22005.0
5.5833074,21930.0
5.6004635,21887.0
5.6176196,21815.0
5.6347757000000005,21766.0
5.6519318,21450.0
5.6690879,21261.0
5.686244,21111.0
5.7034001,20813.0
5.7205562,20911.0
5.7377123,20553.0
5.7548684,21012.0
5.7720245,20845.0
5.7891806,20233.0
5.8063367,20381.0
5.8234928,20283.0
5.8406489,20158.0
5.857805,19760.0
5.8749611,20134.0
5.8921172,19638.0
5.9092733,19804.0
5.9264294,19274.0
5.9435855,19391.0
5.9607416,19215.0
5.9778977,19295.0
5.9950538,19335.0
6.0122099,18827.0
6.029366,18598.0
6.0465221,18721.0
6.0636782,18847.0
6.0808343,18559.0
6.0979904000000005,18338.0
6.1151465,18257.0
6.1323026,18180.0
6.1494587,18259.0
6.1666148,18062.0
6.1837709,17569.0
6.200927,17820.0
6.2180831,17529.0
6.2352392000000005,17403.0
6.2523953,17126.0
6.2695514,17127.0
6.2867075,17328.0
6.3038636,16736.0
6.3210197,16845.0
6.3381758,16527.0
6.3553319,16594.0
6.372488000000001,16563.0
6.3896441,16207.0
6.4068002,15985.0
6.4239563,15954.0
6.4411124,15774.0
6.4582685,15516.0
6.4754246,15614.0
6.4925806999999995,15541.0
6.5097368,15234.0
6.5268929,15228.0
6.544049,14991.0
6.5612051000000005,15099.0
6.5783612,15025.0
6.5955173,14708.0
6.6126734,14759.0
6.6298295,14598.0
6.6469856,14416.0
6.6641417,14184.0
6.6812978,14162.0
6.6984539000000005,13880.0
6.71561,13969.0
6.7327661,13606.0
6.7499222,13551.0
6.7670783,13652.0
6.7842344,13233.0
6.8013905,13247.0
6.8185466,13030.0
6.835702700000001,12996.0
6.8528588,13041.0
6.8700149,12575.0
6.887171,12624.0
6.9043271,12399.0
6.9214832,12502.0
6.9386393,12276.0
6.9557953999999995,11998.0
6.9729515,12293.0
6.9901076,12214.0
7.0072637,11697.0
7.0244198,11595.0
7.0415759,11523.0
7.058732,11656.0
7.0758881,11507.0
7.0930442,11248.0
7.110200300000001,11092.0
7.1273564,10836.0
7.1445125,10894.0
7.1616686000000005,10789.0
7.1788247,10742.0
7.1959808,10457.0
7.2131369,10585.0
7.230293,10523.0
7.2474491,10376.0
7.2646052,10168.0
7.281761299999999,10140.0
7.2989174000000006,10030.0
7.3160735,9931.0
7.3332296,9896.0
7.3503857,9758.0
7.3675418,9652.0
7.3846979,9640.0
7.401854,9459.0
7.4190100999999995,9454.0
7.436166200000001,9340.0
7.4533223,9218.0
7.4704784,9369.0
7.4876345,9199.0
7.5047906,9115.0
7.5219467,9020.0
7.5391028,9024.0
7.5562589,8794.0
7.573415000000001,8740.0
7.5905711,8694.0
7.6077272,8534.0
7.6248833000000005,8438.0
7.6420394,8372.0
7.6591955,8348.0
7.6763516,8069.0
7.6935077,8082.0
7.710663800000001,8154.0
7.7278199,8122.0
7.744976,8067.0
7.7621321000000005,7896.0
7.7792882,7983.0
7.7964443,7761.0
7.8136004,7688.0
7.8307565,7596.0
7.8479126,7585.0
7.8650687,7748.0
7.8822247999999995,7599.0
7.899380900000001,7551.0
7.916537,7483.0
7.9336931,7473.0
7.9508492,7389.0
7.9680053,7357.0
7.9851614,7332.0
8.0023175,7338.0
8.0194736,7380.0
8.0366297,7286.0
8.0537858,7196.0
8.070941900000001,7290.0
8.088098,7189.0
8.1052541,7400.0
8.122410200000001,7193.0
8.1395663,7253.0
8.1567224,7206.0
8.1738785,7346.0
8.1910346,7352.0
8.2081907,7270.0
8.2253468,7274.0
8.2425029,7078.0
8.259659,7170.0
8.2768151,7211.0
8.2939712,7159.0
8.311127299999999,7321.0
8.3282834,7255.0
8.3454395,7288.0
8.3625956,7202.0
8.3797517,7234.0
8.396907800000001,7366.0
8.4140639,7217.0
8.43122,7236.0
8.4483761,7233.0
8.4655322,7220.0
8.4826883,7129.0
8.4998444,7317.0
8.5170005,7290.0
8.5341566,7339.0
8.5513127,7116.0
8.5684688,7271.0
8.5856249,7409.0
8.602781,7311.0
8.6199371,7289.0
8.6370932,7357.0
8.6542493,7305.0
8.671405400000001,7236.0
8.6885615,7194.0
8.7057176,7321.0
8.722873700000001,7188.0
8.7400298,7216.0
8.7571859,7282.0
8.774342,7200.0
8.7914981,7206.0
8.8086542,7413.0
8.8258103,7229.0
8.8429664,7198.0
8.8601225,7315.0
8.8772786,7234.0
8.8944347,7270.0
8.911590799999999,7137.0
8.9287469,7368.0
8.945903,7249.0
8.9630591,7239.0
8.9802152,7243.0
8.997371300000001,7330.0
9.0145274,7352.0
9.0316835,7079.0
9.0488396,7266.0
9.0659957,7167.0
9.0831518,7390.0
9.1003079,7251.0
9.117464,7383.0
9.1346201,7175.0
9.1517762,7194.0
9.1689323,7362.0
9.1860884,7254.0
9.2032445,7337.0
9.220400600000001,7205.0
9.237556699999999,7202.0
9.2547128,7124.0
9.271868900000001,7310.0
9.289025,7253.0
9.3061811,7217.0
9.323337200000001,7312.0
9.3404933,7106.0
9.3576494,7081.0
9.3748055,7123.0
9.3919616,7220.0
9.4091177,7235.0
9.4262738,7210.0
9.4434299,7255.0
9.460586,7123.0
9.4777421,7075.0
9.4948982,7166.0
9.512054299999999,7149.0
9.5292104,7183.0
9.546366500000001,7225.0
9.563522599999999,6995.0
9.5806787,7224.0
9.597834800000001,7213.0
9.6149909,7201.0
9.632147,7157.0
9.649303100000001,7081.0
9.6664592,7236.0
9.6836153,7184.0
9.7007714,7131.0
9.7179275,7046.0
9.7350836,7145.0
9.7522397,7314.0
9.7693958,7052.0
9.7865519,7124.0
9.803708,7252.0
9.820864100000001,7391.0
9.838020199999999,7205.0
9.8551763,7251.0
9.872332400000001,7328.0
9.8894885,7147.0
9.9066446,7337.0
9.923800700000001,7205.0
9.9409568,7206.0
9.9581129,7345.0
9.975269,7190.0
9.9924251,7100.0
10.0095812,7189.0
10.0267373,7216.0
10.0438934,7147.0
10.0610495,7231.0
10.0782056,7160.0
10.0953617,7080.0
10.1125178,7184.0
10.1296739,7159.0
10.146830000000001,7166.0
10.163986099999999,7227.0
10.1811422,7124.0
10.198298300000001,7186.0
10.2154544,7004.0
10.2326105,7131.0
10.249766600000001,6965.0
10.2669227,7149.0
10.2840788,7190.0
10.3012349,7116.0
10.318391,7002.0
10.3355471,6986.0
10.3527032,7125.0
10.3698593,7180.0
10.3870154,7074.0
10.4041715,7298.0
10.421327600000001,7125.0
10.438483699999999,7045.0
10.4556398,7105.0
10.472795900000001,7093.0
10.489952,7169.0
10.5071081,7143.0
10.524264200000001,7039.0
10.5414203,7208.0
10.5585764,6972.0
10.5757325,7084.0
10.5928886,7002.0
10.6100447,7089.0
10.6272008,6998.0
10.6443569,6856.0
10.661513,7134.0
10.6786691,6901.0
10.6958252,6937.0
10.7129813,7129.0
10.7301374,6967.0
10.747293500000001,7176.0
10.764449599999999,7013.0
10.7816057,7221.0
10.798761800000001,7107.0
10.8159179,7234.0
10.833074,7206.0
10.850230100000001,7289.0
10.8673862,7009.0
10.8845423,6892.0
10.9016984,6978.0
10.9188545,7038.0
10.9360106,6910.0
10.9531667,6895.0
10.9703228,6964.0
10.9874789,6852.0
11.004635,6849.0
11.021791100000002,6892.0
11.038947199999999,6703.0
11.0561033,6761.0
11.073259400000001,6770.0
11.090415499999999,6670.0
11.1075716,6744.0
11.124727700000001,6685.0
11.1418838,6784.0
11.1590399,6673.0
11.176196000000001,6683.0
11.1933521,6794.0
11.2105082,6673.0
11.2276643,6693.0
11.2448204,6792.0
11.2619765,6771.0
11.2791326,6681.0
11.2962887,6427.0
11.3134448,6698.0
11.3306009,6665.0
11.347757000000001,6880.0
11.364913099999999,6660.0
11.3820692,6633.0
11.399225300000001,6586.0
11.4163814,6458.0
11.4335375,6614.0
11.450693600000001,6608.0
11.4678497,6736.0
11.4850058,6685.0
11.5021619,6666.0
11.519318,6513.0
11.5364741,6584.0
11.5536302,6512.0
11.5707863,6591.0
11.5879424,6542.0
11.6050985,6530.0
11.6222546,6614.0
11.639410699999999,6545.0
11.6565668,6546.0
11.673722900000001,6410.0
11.690878999999999,6453.0
11.7080351,6412.0
11.725191200000001,6512.0
11.7423473,6337.0
11.7595034,6530.0
11.776659500000001,6497.0
11.7938156,6394.0
11.8109717,6478.0
11.8281278,6586.0
11.8452839,6570.0
11.86244,6432.0
11.8795961,6463.0
11.8967522,6464.0
11.9139083,6394.0
11.9310644,6448.0
11.948220500000001,6490.0
11.965376599999999,6254.0
11.9825327,6392.0
11.999688800000001,6210.0
12.0168449,6389.0
12.034001,6341.0
12.051157100000001,6391.0
12.0683132,6257.0
12.0854693,6257.0
12.1026254,6316.0
12.1197815,6395.0
12.1369376,6280.0
12.1540937,6309.0
12.1712498,6109.0
12.1884059,6184.0
12.205562,6124.0
12.2227181,6082.0
12.2398742,6194.0
12.2570303,6346.0
12.274186400000001,6216.0
12.291342499999999,6127.0
12.3084986,6181.0
12.325654700000001,6078.0
12.3428108,6109.0
12.3599669,6083.0
12.377123000000001,6086.0
12.3942791,6264.0
12.4114352,6026.0
12.4285913,6073.0
12.4457474,6090.0
12.4629035,6127.0
12.4800596,6044.0
12.4972157,6160.0
12.5143718,6096.0
12.5315279,6202.0
12.548684000000002,6241.0
12.565840099999999,6042.0
12.5829962,5937.0
12.600152300000001,6068.0
12.6173084,6015.0
12.6344645,5908.0
12.651620600000001,6086.0
12.6687767,5966.0
12.6859328,6088.0
12.703088900000001,6093.0
12.720245,5966.0
12.7374011,6124.0
12.7545572,5999.0
12.7717133,5971.0
12.7888694,5956.0
12.8060255,5954.0
12.8231816,6050.0
12.8403377,5929.0
12.8574938,5884.0
12.874649900000001,5724.0
12.891805999999999,5887.0
12.9089621,5818.0
12.926118200000001,5759.0
12.9432743,5835.0
12.9604304,5758.0
12.977586500000001,5877.0
12.9947426,5805.0
13.0118987,5817.0
13.0290548,5835.0
13.0462109,5808.0
13.063367,5753.0
13.0805231,5722.0
13.0976792,5822.0
13.114835300000001,5776.0
13.1319914,5735.0
13.1491475,5804.0
13.1663036,5738.0
13.1834597,5809.0
13.2006158,5927.0
13.2177719,5764.0
13.234928,5790.0
13.2520841,5793.0
13.2692402,5764.0
13.2863963,5625.0
13.303552400000001,5809.0
13.3207085,5718.0
13.3378646,5840.0
13.3550207,5678.0
13.3721768,5626.0
13.3893329,5709.0
13.406489,5765.0
13.4236451,5678.0
13.440801200000001,5759.0
13.4579573,5577.0
13.4751134,5687.0
13.4922695,5779.0
13.5094256,5750.0
13.5265817,5613.0
13.5437378,5672.0
13.5608939,5728.0
13.578050000000001,5556.0
13.5952061,5609.0
13.6123622,5569.0
13.6295183,5567.0
13.6466744,5642.0
13.6638305,5688.0
13.6809866,5365.0
13.6981427,5505.0
13.715298800000001,5550.0
13.7324549,5489.0
13.749611,5581.0
13.766767100000001,5614.0
13.7839232,5600.0
13.8010793,5529.0
13.8182354,5437.0
13.8353915,5551.0
13.8525476,5559.0
13.8697037,5506.0
13.8868598,5497.0
13.904015900000001,5510.0
13.921172,5453.0
13.9383281,5433.0
13.9554842,5506.0
13.9726403,5494.0
13.9897964,5476.0
14.0069525,5353.0
14.0241086,5464.0
14.041264700000001,5440.0
14.0584208,5395.0
14.0755769,5470.0
14.092733,5412.0
14.1098891,5474.0
14.1270452,5344.0
14.1442013,5320.0
14.1613574,5528.0
14.178513500000001,5529.0
14.1956696,5418.0
14.2128257,5310.0
14.229981800000001,5442.0
14.2471379,5323.0
14.264294,5437.0
14.2814501,5469.0
14.2986062,5441.0
14.315762300000001,5404.0
14.3329184,5325.0
14.3500745,5398.0
14.367230600000001,5376.0
14.3843867,5393.0
14.4015428,5155.0
14.4186989,5359.0
14.435855,5287.0
14.4530111,5354.0
14.4701672,5307.0
14.4873233,5399.0
14.504479400000001,5328.0
14.5216355,5304.0
14.5387916,5229.0
14.5559477,5228.0
14.5731038,5339.0
14.5902599,5280.0
14.607416,5245.0
14.6245721,5369.0
14.641728200000001,5217.0
14.6588843,5178.0
14.6760404,5192.0
14.6931965,5274.0
14.7103526,5251.0
14.7275087,5335.0
14.7446648,5167.0
14.7618209,5289.0
14.778977000000001,5247.0
14.7961331,5287.0
14.8132892,5041.0
14.830445300000001,5261.0
14.8476014,5160.0
14.8647575,5329.0
14.8819136,5133.0
14.8990697,5278.0
14.9162258,5266.0
14.9333819,5214.0
14.950538,5208.0
14.967694100000001,5340.0
14.9848502,5181.0
15.0020063,5256.0
15.0191624,5271.0
15.0363185,5239.0
15.0534746,5186.0
15.0706307,5270.0
15.0877868,5186.0
15.104942900000001,5233.0
15.122099,5177.0
15.1392551,5176.0
15.1564112,5220.0
15.1735673,5133.0
15.1907234,5243.0
15.2078795,5193.0
15.2250356,5064.0
15.242191700000001,5186.0
15.2593478,5152.0
15.2765039,5322.0
15.293660000000001,5246.0
15.3108161,5322.0
15.3279722,5104.0
15.3451283,5220.0
15.3622844,5207.0
15.379440500000001,5252.0
15.3965966,5189.0
15.4137527,5083.0
15.430908800000001,5129.0
15.4480649,5138.0
15.465221,5227.0
15.4823771,5084.0
15.4995332,5222.0
15.5166893,5292.0
15.5338454,5180.0
15.5510015,5240.0
15.568157600000001,5283.0
15.5853137,5336.0
15.6024698,5262.0
15.6196259,5242.0
15.636782,5189.0
15.6539381,5147.0
15.6710942,5278.0
15.6882503,5202.0
15.705406400000001,5135.0
15.7225625,5165.0
15.7397186,5123.0
15.756874700000001,5173.0
15.7740308,5283.0
15.7911869,5140.0
15.808343,5185.0
15.8254991,5347.0
15.842655200000001,5276.0
15.8598113,5379.0
15.8769674,5205.0
15.894123500000001,5283.0
15.9112796,5286.0
15.9284357,5287.0
15.9455918,5225.0
15.9627479,5254.0
15.979904000000001,5236.0
15.9970601,5161.0
16.0142162,5113.0
16.0313723,5237.0
16.048528400000002,5197.0
16.0656845,5148.0
16.0828406,5280.0
16.0999967,5311.0
16.1171528,5245.0
16.1343089,5299.0
16.151465,5217.0
16.168621100000003,5352.0
16.1857772,5156.0
16.202933299999998,5268.0
16.2200894,5237.0
16.2372455,5218.0
16.2544016,5169.0
16.271557700000002,5340.0
16.2887138,5268.0
16.3058699,5211.0
16.323026,5205.0
16.3401821,5308.0
16.3573382,5313.0
16.374494300000002,5321.0
16.3916504,5111.0
16.4088065,5289.0
16.4259626,5243.0
16.4431187,5169.0
16.4602748,5332.0
16.4774309,5256.0
16.494587000000003,5252.0
16.5117431,5284.0
16.528899199999998,5220.0
16.5460553,5335.0
16.5632114,5316.0
16.5803675,5224.0
16.597523600000002,5344.0
16.6146797,5383.0
16.6318358,5365.0
16.6489919,5319.0
16.666148,5328.0
16.6833041,5268.0
16.700460200000002,5390.0
16.7176163,5240.0
16.7347724,5324.0
16.751928499999998,5366.0
16.7690846,5360.0
16.7862407,5288.0
16.8033968,5337.0
16.820552900000003,5330.0
16.837709,5427.0
16.854865099999998,5330.0
16.8720212,5364.0
16.8891773,5311.0
16.9063334,5406.0
16.923489500000002,5424.0
16.9406456,5172.0
16.9578017,5402.0
16.9749578,5274.0
16.9921139,5420.0
17.00927,5324.0
17.026426100000002,5265.0
17.043582200000003,5400.0
17.0607383,5350.0
17.077894399999998,5457.0
17.0950505,5274.0
17.1122066,5426.0
17.1293627,5426.0
17.146518800000003,5308.0
17.1636749,5349.0
17.180830999999998,5386.0
17.1979871,5289.0
17.2151432,5337.0
17.2322993,5439.0
17.249455400000002,5332.0
17.2666115,5349.0
17.2837676,5397.0
17.3009237,5369.0
17.3180798,5415.0
17.3352359,5318.0
17.352392000000002,5401.0
17.369548100000003,5331.0
17.3867042,5402.0
17.403860299999998,5379.0
17.4210164,5460.0
17.4381725,5407.0
17.4553286,5443.0
17.472484700000003,5415.0
17.4896408,5379.0
17.5067969,5426.0
17.523953,5430.0
17.5411091,5591.0
17.5582652,5404.0
17.575421300000002,5463.0
17.5925774,5403.0
17.6097335,5331.0
17.6268896,5464.0
17.6440457,5398.0
17.6612018,5515.0
17.6783579,5290.0
17.695514000000003,5362.0
17.7126701,5472.0
17.729826199999998,5436.0
17.7469823,5325.0
17.7641384,5376.0
17.7812945,5292.0
17.798450600000002,5342.0
17.8156067,5489.0
17.8327628,5576.0
17.8499189,5504.0
17.867075,5406.0
17.8842311,5329.0
17.901387200000002,5485.0
17.9185433,5492.0
17.9356994,5514.0
17.9528555,5436.0
17.9700116,5366.0
17.9871677,5388.0
18.0043238,5424.0
18.021479900000003,5463.0
18.038636,5435.0
18.055792099999998,5292.0
18.0729482,5427.0
18.0901043,5486.0
18.1072604,5369.0
18.124416500000002,5528.0
18.1415726,5509.0
18.1587287,5448.0
18.1758848,5379.0
18.1930409,5507.0
18.210197,5499.0
18.227353100000002,5497.0
18.2445092,5479.0
18.2616653,5562.0
18.278821399999998,5351.0
18.2959775,5518.0
18.3131336,5473.0
18.3302897,5612.0
18.347445800000003,5528.0
18.3646019,5402.0
18.381757999999998,5406.0
18.3989141,5413.0
18.4160702,5418.0
18.4332263,5397.0
18.450382400000002,5393.0
18.4675385,5411.0
18.4846946,5469.0
18.5018507,5391.0
18.5190068,5638.0
18.5361629,5340.0
18.553319000000002,5505.0
18.570475100000003,5634.0
18.5876312,5412.0
18.604787299999998,5453.0
18.6219434,5475.0
18.6390995,5458.0
18.6562556,5538.0
18.673411700000003,5429.0
18.6905678,5457.0
18.7077239,5353.0
18.72488,5511.0
18.7420361,5310.0
18.7591922,5475.0
18.776348300000002,5419.0
18.7935044,5388.0
18.8106605,5608.0
18.8278166,5391.0
18.8449727,5467.0
18.8621288,5460.0
18.879284900000002,5441.0
18.896441000000003,5351.0
18.9135971,5475.0
18.930753199999998,5461.0
18.9479093,5455.0
18.9650654,5541.0
18.9822215,5440.0
18.999377600000003,5425.0
19.0165337,5505.0
19.0336898,5423.0
19.0508459,5425.0
19.068002,5584.0
19.0851581,5507.0
19.102314200000002,5380.0
19.1194703,5461.0
19.1366264,5499.0
19.1537825,5416.0
19.1709386,5462.0
19.1880947,5414.0
19.2052508,5288.0
19.222406900000003,5380.0
19.239563,5519.0
19.256719099999998,5391.0
19.2738752,5482.0
19.2910313,5555.0
19.3081874,5358.0
19.325343500000002,5512.0
19.3424996,5513.0
19.3596557,5316.0
19.3768118,5520.0
19.3939679,5368.0
19.411124,5455.0
19.428280100000002,5308.0
19.4454362,5576.0
19.4625923,5396.0
19.4797484,5466.0
19.4969045,5519.0
19.5140606,5422.0
19.5312167,5495.0
19.548372800000003,5545.0
19.5655289,5630.0
19.582684999999998,5505.0
19.5998411,5655.0
19.6169972,5713.0
19.6341533,5738.0
19.651309400000002,5653.0
19.6684655,5772.0
19.6856216,5670.0
19.7027777,5554.0
19.7199338,5561.0
19.7370899,5482.0
19.754246000000002,5531.0
19.771402100000003,5537.0
19.7885582,5498.0
19.805714299999998,5588.0
19.8228704,5457.0
19.8400265,5499.0
19.8571826,5417.0
19.874338700000003,5367.0
19.8914948,5497.0
19.908650899999998,5413.0
19.925807,5479.0
19.9429631,5495.0
19.9601192,5345.0
19.977275300000002,5464.0
19.9944314,5366.0
20.0115875,5557.0
20.0287436,5542.0
20.0458997,5487.0
20.0630558,5422.0
20.080211900000002,5372.0
20.097368000000003,5421.0
20.1145241,5350.0
20.131680199999998,5542.0
20.1488363,5422.0
20.1659924,5395.0
20.1831485,5452.0
20.200304600000003,5308.0
20.2174607,5315.0
20.2346168,5360.0
20.2517729,5409.0
20.268929,5424.0
20.2860851,5412.0
20.303241200000002,5331.0
20.3203973,5424.0
20.3375534,5499.0
20.3547095,5450.0
20.3718656,5180.0
20.3890217,5428.0
20.406177800000002,5356.0
20.423333900000003,5253.0
20.44049,5353.0
20.457646099999998,5369.0
20.4748022,5270.0
20.4919583,5322.0
20.5091144,5381.0
20.526270500000003,5419.0
20.5434266,5439.0
20.5605827,5192.0
20.5777388,5386.0
20.5948949,5396.0
20.612051,5389.0
20.629207100000002,5438.0
20.6463632,5492.0
20.6635193,5269.0
20.6806754,5295.0
20.6978315,5333.0
20.7149876,5298.0
20.7321437,5494.0
20.749299800000003,5344.0
20.7664559,5320.0
20.783611999999998,5310.0
20.8007681,5351.0
20.8179242,5417.0
20.8350803,5431.0
20.852236400000002,5394.0
20.8693925,5409.0
20.8865486,5330.0
20.9037047,5318.0
20.9208608,5307.0
20.9380169,5332.0
20.955173000000002,5266.0
20.9723291,5390.0
20.9894852,5305.0
21.006641300000002,5324.0
21.0237974,5404.0
21.0409535,5488.0
21.0581096,5101.0
21.0752657,5347.0
21.0924218,5419.0
21.1095779,5290.0
21.126734,5447.0
21.1438901,5399.0
21.1610462,5273.0
21.1782023,5307.0
21.1953584,5320.0
21.2125145,5308.0
21.229670600000002,5328.0
21.2468267,5429.0
21.2639828,5384.0
21.281138900000002,5334.0
21.298295,5320.0
21.3154511,5243.0
21.3326072,5309.0
21.3497633,5378.0
21.3669194,5370.0
21.3840755,5270.0
21.4012316,5487.0
21.4183877,5436.0
21.4355438,5420.0
21.4526999,5387.0
21.469856,5542.0
21.4870121,5490.0
21.5041682,5520.0
21.5213243,5535.0
21.5384804,5554.0
21.555636500000002,5483.0
21.5727926,5466.0
21.5899487,5309.0
21.607104800000002,5309.0
21.6242609,5592.0
21.641417,5546.0
21.6585731,5455.0
21.6757292,5571.0
21.6928853,5520.0
21.7100414,5649.0
21.7271975,5598.0
21.7443536,5415.0
21.7615097,5422.0
21.7786658,5291.0
21.7958219,5307.0
21.812978,5323.0
21.830134100000002,5335.0
21.8472902,5301.0
21.8644463,5418.0
21.881602400000002,5385.0
21.8987585,5279.0
21.9159146,5200.0
21.933070700000002,5407.0
21.9502268,5371.0
21.9673829,5301.0
21.984539,5276.0
22.0016951,5407.0
22.0188512,5211.0
22.0360073,5343.0
22.0531634,5329.0
22.0703195,5408.0
22.0874756,5344.0
22.1046317,5350.0
22.1217878,5266.0
22.1389439,5265.0
22.156100000000002,5291.0
22.1732561,5342.0
22.1904122,5231.0
22.207568300000002,5322.0
22.2247244,5278.0
22.2418805,5295.0
22.2590366,5166.0
22.2761927,5100.0
22.2933488,5253.0
22.3105049,5467.0
22.327661,5359.0
22.3448171,5259.0
22.3619732,5296.0
22.3791293,5196.0
22.3962854,5397.0
22.4134415,5348.0
22.430597600000002,5227.0
22.4477537,5293.0
22.4649098,5357.0
22.482065900000002,5411.0
22.499222,5298.0
22.5163781,5311.0
22.533534200000002,5462.0
22.5506903,5442.0
22.5678464,5472.0
22.5850025,5499.0
22.6021586,5316.0
22.6193147,5382.0
22.6364708,5364.0
22.6536269,5283.0
22.670783,5492.0
22.6879391,5287.0
22.7050952,5344.0
22.7222513,5302.0
22.7394074,5390.0
22.756563500000002,5361.0
22.7737196,5254.0
22.7908757,5449.0
22.808031800000002,5359.0
22.8251879,5283.0
22.842344,5208.0
22.8595001,5154.0
22.8766562,5289.0
22.8938123,5293.0
22.9109684,5314.0
22.9281245,5338.0
22.9452806,5397.0
22.9624367,5376.0
22.9795928,5296.0
22.9967489,5170.0
23.013905,5430.0
23.031061100000002,5356.0
23.0482172,5254.0
23.0653733,5241.0
23.082529400000002,5361.0
23.0996855,5305.0
23.1168416,5365.0
23.133997700000002,5230.0
23.1511538,5236.0
23.1683099,5213.0
23.185466,5414.0
23.2026221,5316.0
23.2197782,5348.0
23.2369343,5236.0
23.2540904,5272.0
23.2712465,5263.0
23.2884026,5369.0
23.3055587,5413.0
23.3227148,5360.0
23.3398709,5346.0
23.357027000000002,5352.0
23.3741831,5512.0
23.3913392,5283.0
23.408495300000002,5362.0
23.4256514,5397.0
23.4428075,5476.0
23.459963600000002,5530.0
23.4771197,5829.0
23.4942758,5781.0
23.5114319,5931.0
23.528588,5961.0
23.5457441,5846.0
23.5629002,6005.0
23.5800563,5922.0
23.5972124,5885.0
23.6143685,5815.0
23.631524600000002,5635.0
23.6486807,5586.0
23.6658368,5579.0
23.682992900000002,5472.0
23.700149,5436.0
23.7173051,5497.0
23.734461200000002,5514.0
23.7516173,5497.0
23.7687734,5556.0
23.7859295,5500.0
23.8030856,5698.0
23.8202417,5578.0
23.8373978,5469.0
23.8545539,5362.0
23.87171,5416.0
23.8888661,5255.0
23.9060222,5417.0
23.9231783,5233.0
23.9403344,5227.0
23.957490500000002,5345.0
23.9746466,5408.0
23.9918027,5440.0
24.008958800000002,5251.0
24.0261149,5286.0
24.043271,5310.0
24.060427100000002,5271.0
24.0775832,5158.0
24.0947393,5241.0
24.1118954,5233.0
24.1290515,5138.0
24.1462076,5100.0
24.1633637,5076.0
24.1805198,5156.0
24.1976759,5135.0
24.214832,5023.0
24.2319881,5047.0
24.2491442,5120.0
24.2663003,5233.0
24.283456400000002,5128.0
24.3006125,5127.0
24.3177686,5087.0
24.334924700000002,5098.0
24.3520808,5055.0
24.3692369,5228.0
24.386393,5159.0
24.4035491,5107.0
24.4207052,5157.0
24.4378613,5191.0
24.4550174,5136.0
24.4721735,4995.0
24.4893296,5087.0
24.5064857,5218.0
24.5236418,5075.0
24.5407979,5148.0
24.557954000000002,5088.0
24.5751101,5112.0
24.5922662,5188.0
24.609422300000002,5148.0
24.6265784,5069.0
24.6437345,5165.0
24.660890600000002,5208.0
24.6780467,4995.0
24.6952028,5137.0
24.7123589,5047.0
24.729515,5114.0
24.7466711,5187.0
24.7638272,5166.0
24.7809833,5033.0
24.7981394,5147.0
24.8152955,5015.0
24.8324516,4943.0
24.8496077,5066.0
24.8667638,5068.0
24.883919900000002,5095.0
24.901076,5101.0
24.9182321,4970.0
24.935388200000002,5082.0
24.9525443,4953.0
24.9697004,5091.0
24.986856500000002,5069.0
25.0040126,5154.0
25.0211687,5166.0
25.0383248,5037.0
25.0554809,5178.0
25.072637,4968.0
25.0897931,5056.0
25.1069492,5085.0
25.1241053,4934.0
25.1412614,4969.0
25.158417500000002,5086.0
25.1755736,5135.0
25.1927297,5132.0
25.209885800000002,4965.0
25.2270419,4925.0
25.244198,5066.0
25.261354100000002,4880.0
25.2785102,4946.0
25.2956663,4903.0
25.3128224,4920.0
25.3299785,4917.0
25.3471346,5044.0
25.3642907,4997.0
25.3814468,5082.0
25.3986029,5025.0
25.415759,4956.0
25.4329151,5055.0
25.4500712,5080.0
25.4672273,4863.0
25.484383400000002,5020.0
25.5015395,5027.0
25.5186956,4937.0
25.535851700000002,5046.0
25.5530078,5034.0
25.5701639,5010.0
25.587320000000002,5083.0
25.6044761,4917.0
25.6216322,5077.0
25.6387883,5065.0
25.6559444,5042.0
25.6731005,5017.0
25.6902566,5035.0
25.7074127,5075.0
25.7245688,5156.0
25.7417249,5039.0
25.758881000000002,5150.0
25.7760371,5222.0
25.7931932,5375.0
25.810349300000002,5263.0
25.8275054,5627.0
25.8446615,5661.0
25.861817600000002,5685.0
25.8789737,5562.0
25.8961298,5720.0
25.9132859,5625.0
25.930442,5563.0
25.9475981,5473.0
25.9647542,5317.0
25.9819103,5181.0
25.9990664,4999.0
26.0162225,5054.0
26.0333786,4931.0
26.0505347,5063.0
26.0676908,4810.0
26.084846900000002,4946.0
26.102003,4966.0
26.1191591,4946.0
26.136315200000002,4883.0
26.1534713,4852.0
26.1706274,4784.0
26.187783500000002,4806.0
26.2049396,4716.0
26.2220957,4835.0
26.2392518,4861.0
26.2564079,4824.0
26.273564,4809.0
26.2907201,4856.0
26.3078762,4838.0
26.3250323,4792.0
26.3421884,4831.0
26.359344500000002,4929.0
26.3765006,4827.0
26.3936567,4734.0
26.410812800000002,4812.0
26.4279689,4743.0
26.445125,4786.0
26.462281100000002,4742.0
26.4794372,4879.0
26.4965933,4794.0
26.513749400000002,4793.0
26.5309055,4832.0
26.5480616,4639.0
26.5652177,4725.0
26.5823738,4724.0
26.5995299,4826.0
26.616686,4748.0
26.6338421,4710.0
26.6509982,4531.0
26.6681543,4732.0
26.685310400000002,4656.0
26.7024665,4683.0
26.7196226,4573.0
26.736778700000002,4696.0
26.7539348,4622.0
26.7710909,4633.0
26.788247000000002,4612.0
26.8054031,4705.0
26.8225592,4583.0
26.8397153,4604.0
26.8568714,4732.0
26.8740275,4554.0
26.8911836,4546.0
26.9083397,4622.0
26.9254958,4567.0
26.9426519,4546.0
26.959808000000002,4719.0
26.9769641,4596.0
26.9941202,4694.0
27.011276300000002,4810.0
27.0284324,4772.0
27.0455885,4656.0
27.062744600000002,4614.0
27.0799007,4635.0
27.0970568,4673.0
27.114212900000002,4599.0
27.131369,4528.0
27.1485251,4551.0
27.1656812,4712.0
27.1828373,4666.0
27.1999934,4699.0
27.2171495,4823.0
27.2343056,4786.0
27.2514617,4823.0
27.2686178,4811.0
27.285773900000002,4833.0
27.30293,4769.0
27.3200861,4657.0
27.337242200000002,4751.0
27.3543983,4819.0
27.3715544,4716.0
27.388710500000002,4734.0
27.4058666,4688.0
27.4230227,4666.0
27.4401788,4772.0
27.4573349,4718.0
27.474491,4685.0
27.4916471,4761.0
27.5088032,4722.0
27.5259593,4692.0
27.5431154,4745.0
27.5602715,4947.0
27.5774276,4750.0
27.5945837,4830.0
27.611739800000002,5070.0
27.6288959,4917.0
27.646052,5156.0
27.663208100000002,5292.0
27.6803642,5530.0
27.6975203,5608.0
27.714676400000002,5931.0
27.7318325,6103.0
27.7489886,6296.0
27.7661447,6252.0
27.7833008,6127.0
27.8004569,6060.0
27.817613,5886.0
27.8347691,5792.0
27.8519252,5760.0
27.8690813,5362.0
27.886237400000002,5351.0
27.9033935,5328.0
27.9205496,5207.0
27.937705700000002,5036.0
27.9548618,5212.0
27.9720179,5146.0
27.989174000000002,5138.0
28.0063301,5243.0
28.0234862,5334.0
28.040642300000002,5404.0
28.0577984,5413.0
28.0749545,5631.0
28.0921106,5668.0
28.1092667,5806.0
28.1264228,5934.0
28.1435789,6154.0
28.160735,6464.0
28.1778911,6920.0
28.1950472,7432.0
28.212203300000002,8309.0
28.2293594,9361.0
28.2465155,11073.0
28.263671600000002,13425.0
28.2808277,16900.0
28.2979838,21857.0
28.315139900000002,28996.0
28.332296,36723.0
28.3494521,42940.0
28.3666082,46958.0
28.3837643,46728.0
28.4009204,44639.0
28.4180765,42743.0
28.4352326,40032.0
28.4523887,35267.0
28.4695448,28463.0
28.486700900000002,22545.0
28.503857,18608.0
28.5210131,15578.0
28.538169200000002,12156.0
28.5553253,10041.0
28.5724814,8612.0
28.589637500000002,7768.0
28.6067936,6913.0
28.6239497,6531.0
28.641105800000002,6159.0
28.6582619,5972.0
28.675418,5597.0
28.6925741,5404.0
28.7097302,5254.0
28.7268863,5239.0
28.7440424,5137.0
28.7611985,4862.0
28.7783546,4764.0
28.7955107,4738.0
28.812666800000002,4600.0
28.8298229,4524.0
28.846979,4613.0
28.864135100000002,4472.0
28.8812912,4528.0
28.8984473,4504.0
28.915603400000002,4579.0
28.9327595,4371.0
28.9499156,4428.0
28.9670717,4448.0
28.9842278,4397.0
29.0013839,4383.0
29.01854,4318.0
29.0356961,4304.0
29.0528522,4402.0
29.0700083,4304.0
29.087164400000002,4390.0
29.1043205,4236.0
29.1214766,4271.0
29.138632700000002,4350.0
29.1557888,4215.0
29.1729449,4187.0
29.190101000000002,4282.0
29.2072571,4375.0
29.2244132,4256.0
29.241569300000002,4091.0
29.2587254,4107.0
29.2758815,4203.0
29.2930376,4192.0
29.3101937,4190.0
29.3273498,4133.0
29.3445059,4151.0
29.361662,4153.0
29.3788181,4340.0
29.3959742,4083.0
29.413130300000002,3950.0
29.4302864,4108.0
29.4474425,4064.0
29.464598600000002,4080.0
29.4817547,4087.0
29.4989108,4123.0
29.516066900000002,4111.0
29.533223,4053.0
29.5503791,4235.0
29.567535200000002,4102.0
29.5846913,4009.0
29.6018474,4073.0
29.6190035,4269.0
29.6361596,4080.0
29.6533157,4126.0
29.6704718,4048.0
29.687627900000003,4126.0
29.704784,4196.0
29.7219401,4147.0
29.739096200000002,4176.0
29.7562523,4151.0
29.7734084,4166.0
29.790564500000002,4202.0
29.8077206,4263.0
29.8248767,4271.0
29.842032800000002,4348.0
29.8591889,4405.0
29.876345,4415.0
29.8935011,4620.0
29.9106572,4786.0
29.9278133,4886.0
29.9449694,5292.0
29.9621255,5435.0
29.9792816,5805.0
29.9964377,6120.0
30.013593800000002,5958.0
30.0307499,6091.0
30.047906,5858.0
30.065062100000002,5954.0
30.0822182,5637.0
30.0993743,5595.0
30.116530400000002,5418.0
30.1336865,5194.0
30.1508426,5088.0
30.167998700000002,5041.0
30.1851548,4910.0
30.2023109,4942.0
30.219467,4820.0
30.2366231,4799.0
30.2537792,4682.0
30.2709353,4542.0
30.2880914,4634.0
30.3052475,4508.0
30.3224036,4354.0
30.339559700000002,4258.0
30.3567158,4203.0
30.3738719,4202.0
30.391028000000002,4142.0
30.4081841,4042.0
30.4253402,3997.0
30.442496300000002,4032.0
30.4596524,3914.0
30.4768085,3950.0
30.4939646,3849.0
30.5111207,3835.0
30.5282768,3814.0
30.5454329,3843.0
30.562589,3721.0
30.5797451,3829.0
30.5969012,3856.0
30.614057300000002,3733.0
30.6312134,3693.0
30.6483695,3663.0
30.665525600000002,3720.0
30.6826817,3773.0
30.6998378,3677.0
30.716993900000002,3698.0
30.73415,3637.0
30.7513061,3711.0
30.768462200000002,3597.0
30.7856183,3718.0
30.8027744,3716.0
30.8199305,3593.0
30.8370866,3704.0
30.8542427,3632.0
30.8713988,3685.0
30.8885549,3624.0
30.905711,3636.0
30.9228671,3662.0
30.940023200000002,3684.0
30.9571793,3679.0
30.9743354,3549.0
30.991491500000002,3619.0
31.0086476,3589.0
31.0258037,3629.0
31.042959800000002,3632.0
31.0601159,3615.0
31.077272,3557.0
31.094428100000002,3463.0
31.1115842,3482.0
31.1287403,3528.0
31.1458964,3555.0
31.1630525,3571.0
31.1802086,3660.0
31.1973647,3620.0
31.214520800000003,3479.0
31.2316769,3539.0
31.248833,3597.0
31.265989100000002,3509.0
31.2831452,3537.0
31.3003013,3476.0
31.317457400000002,3589.0
31.3346135,3606.0
31.3517696,3522.0
31.368925700000002,3482.0
31.3860818,3421.0
31.4032379,3509.0
31.420394,3408.0
31.4375501,3495.0
31.4547062,3402.0
31.4718623,3424.0
31.4890184,3494.0
31.5061745,3426.0
31.5233306,3457.0
31.540486700000002,3555.0
31.5576428,3462.0
31.5747989,3401.0
31.591955000000002,3457.0
31.6091111,3461.0
31.6262672,3363.0
31.643423300000002,3475.0
31.6605794,3464.0
31.6777355,3394.0
31.694891600000002,3449.0
31.7120477,3531.0
31.7292038,3441.0
31.7463599,3558.0
31.763516,3426.0
31.7806721,3517.0
31.7978282,3476.0
31.814984300000003,3488.0
31.8321404,3398.0
31.8492965,3449.0
31.866452600000002,3352.0
31.8836087,3442.0
31.9007648,3503.0
31.917920900000002,3377.0
31.935077,3531.0
31.9522331,3478.0
31.969389200000002,3420.0
31.9865453,3463.0
32.0037014,3425.0
32.020857500000005,3464.0
32.0380136,3416.0
32.0551697,3380.0
32.0723258,3392.0
32.089481899999996,3427.0
32.106638000000004,3512.0
32.1237941,3498.0
32.140950200000006,3470.0
32.1581063,3439.0
32.1752624,3359.0
32.1924185,3383.0
32.209574599999996,3384.0
32.226730700000005,3376.0
32.2438868,3427.0
32.2610429,3324.0
32.278199,3364.0
32.2953551,3396.0
32.3125112,3411.0
32.3296673,3341.0
32.346823400000005,3422.0
32.3639795,3527.0
32.3811356,3543.0
32.3982917,3556.0
32.4154478,3504.0
32.432603900000004,3620.0
32.44976,3594.0
32.466916100000006,3656.0
32.4840722,3689.0
32.5012283,3836.0
32.5183844,3748.0
32.535540499999996,3833.0
32.552696600000004,4139.0
32.5698527,4142.0
32.5870088,4470.0
32.6041649,4722.0
32.621321,5015.0
32.6384771,5644.0
32.6556332,6643.0
32.672789300000005,7923.0
32.6899454,9225.0
32.7071015,10493.0
32.7242576,11241.0
32.7414137,11436.0
32.758569800000004,11636.0
32.7757259,12320.0
32.792882000000006,12885.0
32.8100381,13581.0
32.8271942,14306.0
32.8443503,14357.0
32.861506399999996,14265.0
32.878662500000004,13806.0
32.8958186,13236.0
32.9129747,13117.0
32.9301308,13124.0
32.9472869,13184.0
32.964443,13121.0
32.9815991,12781.0
32.998755200000005,11996.0
33.0159113,11137.0
33.0330674,10289.0
33.0502235,9940.0
33.0673796,9360.0
33.0845357,8587.0
33.1016918,7830.0
33.118847900000006,7231.0
33.136004,6627.0
33.1531601,6270.0
33.1703162,5831.0
33.187472299999996,5596.0
33.204628400000004,5495.0
33.2217845,5147.0
33.2389406,4949.0
33.2560967,4538.0
33.2732528,4352.0
33.2904089,4129.0
33.307565,3994.0
33.324721100000005,3905.0
33.3418772,3801.0
33.3590333,3560.0
33.3761894,3467.0
33.3933455,3409.0
33.4105016,3392.0
33.4276577,3277.0
33.444813800000006,3351.0
33.4619699,3234.0
33.479126,3256.0
33.4962821,3217.0
33.513438199999996,3264.0
33.530594300000004,3159.0
33.5477504,3200.0
33.5649065,3174.0
33.5820626,3146.0
33.5992187,3170.0
33.6163748,3247.0
33.6335309,3057.0
33.650687000000005,2963.0
33.6678431,3009.0
33.6849992,3063.0
33.7021553,3008.0
33.7193114,3084.0
33.7364675,2946.0
33.7536236,3083.0
33.770779700000006,2981.0
33.7879358,2954.0
33.8050919,2923.0
33.822248,3046.0
33.839404099999996,3028.0
33.856560200000004,2997.0
33.8737163,2944.0
33.8908724,2970.0
33.9080285,2986.0
33.9251846,2961.0
33.9423407,2951.0
33.9594968,2933.0
33.976652900000005,2931.0
33.993809,2912.0
34.0109651,2894.0
34.0281212,2963.0
34.0452773,2922.0
34.0624334,2895.0
34.0795895,2912.0
34.096745600000006,2870.0
34.1139017,2849.0
34.1310578,2897.0
34.1482139,2908.0
34.165369999999996,2865.0
34.182526100000004,2896.0
34.1996822,2914.0
34.2168383,2756.0
34.2339944,2820.0
34.2511505,2808.0
34.2683066,2783.0
34.2854627,2775.0
34.302618800000005,2728.0
34.3197749,2756.0
34.336931,2820.0
34.3540871,2764.0
34.3712432,2861.0
34.3883993,2812.0
34.4055554,2761.0
34.422711500000005,2917.0
34.4398676,2796.0
34.4570237,2706.0
34.4741798,2872.0
34.491335899999996,2669.0
34.508492000000004,2742.0
34.5256481,2827.0
34.542804200000006,2771.0
34.5599603,2749.0
34.5771164,2932.0
34.5942725,2816.0
34.611428599999996,2791.0
34.628584700000005,2818.0
34.6457408,2851.0
34.6628969,2952.0
34.680053,2823.0
34.6972091,2834.0
34.7143652,2872.0
34.7315213,2897.0
34.748677400000005,2927.0
34.7658335,2882.0
34.7829896,2871.0
34.8001457,2821.0
34.817301799999996,2794.0
34.834457900000004,2815.0
34.851614,2791.0
34.868770100000006,2778.0
34.8859262,2703.0
34.9030823,2791.0
34.9202384,2785.0
34.937394499999996,2704.0
34.954550600000005,2743.0
34.9717067,2785.0
34.9888628,2729.0
35.0060189,2761.0
35.023175,2770.0
35.0403311,2597.0
35.0574872,2716.0
35.074643300000005,2622.0
35.0917994,2764.0
35.1089555,2648.0
35.1261116,2621.0
35.1432677,2744.0
35.160423800000004,2707.0
35.1775799,2698.0
35.194736000000006,2627.0
35.2118921,2529.0
35.2290482,2645.0
35.2462043,2647.0
35.263360399999996,2638.0
35.280516500000004,2629.0
35.2976726,2616.0
35.3148287,2553.0
35.3319848,2544.0
35.3491409,2602.0
35.366297,2612.0
35.3834531,2594.0
35.400609200000005,2586.0
35.4177653,2622.0
35.4349214,2661.0
35.4520775,2617.0
35.4692336,2525.0
35.486389700000004,2609.0
35.5035458,2556.0
35.520701900000006,2577.0
35.537858,2630.0
35.5550141,2491.0
35.5721702,2588.0
35.589326299999996,2581.0
35.606482400000004,2512.0
35.6236385,2491.0
35.6407946,2552.0
35.6579507,2513.0
35.6751068,2613.0
35.6922629,2584.0
35.709419,2592.0
35.726575100000005,2588.0
35.7437312,2571.0
35.7608873,2571.0
35.7780434,2590.0
35.7951995,2684.0
35.812355600000004,2692.0
35.8295117,2592.0
35.846667800000006,2769.0
35.8638239,2894.0
35.88098,2930.0
35.8981361,3043.0
35.915292199999996,3321.0
35.932448300000004,3582.0
35.9496044,3594.0
35.9667605,3547.0
35.9839166,3531.0
36.0010727,3441.0
36.0182288,3294.0
36.0353849,3371.0
36.052541000000005,3349.0
36.0696971,3060.0
36.0868532,3048.0
36.1040093,2803.0
36.1211654,2798.0
36.1383215,2735.0
36.1554776,2558.0
36.172633700000006,2648.0
36.1897898,2506.0
36.2069459,2529.0
36.224102,2489.0
36.241258099999996,2493.0
36.258414200000004,2401.0
36.2755703,2495.0
36.2927264,2494.0
36.3098825,2491.0
36.3270386,2511.0
36.3441947,2512.0
36.3613508,2357.0
36.378506900000005,2380.0
36.395663,2434.0
36.4128191,2479.0
36.4299752,2388.0
36.4471313,2486.0
36.4642874,2478.0
36.4814435,2426.0
36.498599600000006,2420.0
36.5157557,2431.0
36.5329118,2385.0
36.5500679,2371.0
36.567223999999996,2481.0
36.584380100000004,2405.0
36.6015362,2404.0
36.6186923,2362.0
36.6358484,2421.0
36.6530045,2433.0
36.6701606,2413.0
36.6873167,2351.0
36.704472800000005,2340.0
36.7216289,2436.0
36.738785,2317.0
36.7559411,2460.0
36.7730972,2369.0
36.7902533,2387.0
36.8074094,2391.0
36.824565500000006,2360.0
36.8417216,2437.0
36.8588777,2385.0
36.8760338,2357.0
36.893189899999996,2400.0
36.910346000000004,2312.0
36.9275021,2447.0
36.9446582,2380.0
36.9618143,2443.0
36.9789704,2489.0
36.9961265,2367.0
37.013282600000004,2392.0
37.0304387,2461.0
37.0475948,2385.0
37.0647509,2392.0
37.081907,2384.0
37.0990631,2356.0
37.1162192,2372.0
37.133375300000004,2322.0
37.1505314,2337.0
37.1676875,2363.0
37.1848436,2406.0
37.2019997,2359.0
37.2191558,2324.0
37.236311900000004,2328.0
37.253468,2362.0
37.2706241,2426.0
37.2877802,2403.0
37.3049363,2352.0
37.3220924,2562.0
37.339248500000004,2487.0
37.3564046,2560.0
37.3735607,2525.0
37.3907168,2618.0
37.4078729,2671.0
37.425029,2598.0
37.4421851,2498.0
37.459341200000004,2671.0
37.4764973,2648.0
37.4936534,2626.0
37.5108095,2570.0
37.5279656,2460.0
37.5451217,2434.0
37.562277800000004,2367.0
37.5794339,2334.0
37.59659,2322.0
37.6137461,2357.0
37.6309022,2269.0
37.6480583,2209.0
37.6652144,2204.0
37.6823705,2251.0
37.6995266,2239.0
37.7166827,2232.0
37.7338388,2169.0
37.7509949,2270.0
37.768151,2196.0
37.785307100000004,2227.0
37.8024632,2206.0
37.8196193,2217.0
37.8367754,2231.0
37.8539315,2273.0
37.8710876,2232.0
37.888243700000004,2222.0
37.9053998,2257.0
37.9225559,2300.0
37.939712,2318.0
37.9568681,2277.0
37.9740242,2278.0
37.9911803,2306.0
38.0083364,2293.0
38.0254925,2361.0
38.0426486,2310.0
38.0598047,2283.0
38.0769608,2333.0
38.0941169,2287.0
38.111273000000004,2349.0
38.1284291,2271.0
38.1455852,2186.0
38.1627413,2302.0
38.1798974,2210.0
38.1970535,2156.0
38.214209600000004,2220.0
38.2313657,2199.0
38.2485218,2105.0
38.2656779,2221.0
38.282834,2197.0
38.2999901,2194.0
38.3171462,2215.0
38.334302300000004,2212.0
38.3514584,2172.0
38.3686145,2198.0
38.3857706,2203.0
38.4029267,2091.0
38.4200828,2162.0
38.437238900000004,2097.0
38.454395,2268.0
38.4715511,2160.0
38.4887072,2312.0
38.5058633,2371.0
38.5230194,2326.0
38.540175500000004,2257.0
38.5573316,2307.0
38.5744877,2305.0
38.5916438,2252.0
38.6087999,2278.0
38.625956,2236.0
38.6431121,2250.0
38.660268200000004,2215.0
38.6774243,2212.0
38.6945804,2180.0
38.7117365,2139.0
38.7288926,2188.0
38.7460487,2093.0
38.763204800000004,2092.0
38.7803609,2137.0
38.797517,2166.0
38.8146731,2094.0
38.8318292,2062.0
38.8489853,2128.0
38.866141400000004,2072.0
38.8832975,2104.0
38.9004536,2112.0
38.9176097,2158.0
38.9347658,2130.0
38.9519219,2134.0
38.969078,2070.0
38.986234100000004,2046.0
39.0033902,2084.0
39.0205463,2116.0
39.0377024,2016.0
39.0548585,2043.0
39.0720146,2066.0
39.089170700000004,2113.0
39.1063268,2095.0
39.1234829,2028.0
39.140639,2127.0
39.1577951,2042.0
39.1749512,2108.0
39.1921073,2152.0
39.2092634,2012.0
39.2264195,2014.0
39.2435756,2009.0
39.2607317,2017.0
39.2778878,2096.0
39.2950439,2002.0
39.312200000000004,2073.0
39.3293561,2055.0
39.3465122,2067.0
39.3636683,2038.0
39.3808244,2064.0
39.3979805,2037.0
39.415136600000004,2087.0
39.4322927,2152.0
39.4494488,1992.0
39.4666049,1997.0
39.483761,2012.0
39.5009171,1980.0
39.5180732,2052.0
39.535229300000005,1970.0
39.5523854,2049.0
39.5695415,2007.0
39.5866976,2083.0
39.6038537,2034.0
39.6210098,2151.0
39.638165900000004,2087.0
39.655322,2040.0
39.6724781,2032.0
39.6896342,2085.0
39.7067903,2129.0
39.7239464,2105.0
39.741102500000004,2086.0
39.7582586,2120.0
39.7754147,2134.0
39.7925708,2208.0
39.8097269,2249.0
39.826883,2084.0
39.8440391,2089.0
39.861195200000004,2107.0
39.8783513,2070.0
39.8955074,2113.0
39.9126635,2030.0
39.9298196,2090.0
39.9469757,2094.0
39.964131800000004,2064.0
39.9812879,2013.0
39.998444,2038.0
40.0156001,1922.0
40.0327562,2099.0
40.0499123,1979.0
40.067068400000004,2016.0
40.0842245,2002.0
40.1013806,1928.0
40.1185367,2009.0
40.1356928,2065.0
40.1528489,1966.0
40.170005,2003.0
40.187161100000004,2033.0
40.2043172,2006.0
40.2214733,1984.0
40.2386294,2098.0
40.2557855,1965.0
40.2729416,2067.0
40.290097700000004,2010.0
40.3072538,2046.0
40.3244099,2018.0
40.341566,2035.0
40.3587221,1973.0
40.3758782,1949.0
40.393034300000004,1916.0
40.4101904,2028.0
40.4273465,2001.0
40.4445026,1870.0
40.4616587,1997.0
40.4788148,1975.0
40.4959709,2032.0
40.513127000000004,1970.0
40.5302831,2019.0
40.5474392,1988.0
40.5645953,1989.0
40.5817514,2067.0
40.5989075,2015.0
40.616063600000004,2012.0
40.6332197,2079.0
40.6503758,1921.0
40.6675319,1986.0
40.684688,2046.0
40.7018441,2017.0
40.7190002,1943.0
40.7361563,1977.0
40.7533124,1941.0
40.7704685,1930.0
40.7876246,1989.0
40.8047807,1933.0
40.8219368,1990.0
40.839092900000004,1886.0
40.856249,1947.0
40.8734051,1954.0
40.8905612,2006.0
40.9077173,1966.0
40.9248734,1980.0
40.942029500000004,1888.0
40.9591856,1958.0
40.9763417,2038.0
40.9934978,1893.0
41.0106539,1914.0
41.02781,1900.0
41.0449661,1946.0
41.062122200000005,1913.0
41.0792783,1854.0
41.0964344,2021.0
41.1135905,1929.0
41.1307466,1920.0
41.1479027,1892.0
41.165058800000004,1894.0
41.1822149,1962.0
41.199371,1934.0
41.2165271,1918.0
41.2336832,1981.0
41.2508393,1910.0
41.267995400000004,1990.0
41.2851515,1990.0
41.3023076,1992.0
41.3194637,1953.0
41.3366198,1929.0
41.3537759,1947.0
41.370932,1980.0
41.388088100000004,1895.0
41.4052442,1976.0
41.4224003,1901.0
41.4395564,1932.0
41.4567125,1986.0
41.4738686,1998.0
41.491024700000004,1971.0
41.5081808,1960.0
41.5253369,1957.0
41.542493,1981.0
41.5596491,1919.0
41.5768052,2003.0
41.593961300000004,2002.0
41.6111174,2052.0
41.6282735,2001.0
41.6454296,2033.0
41.6625857,2029.0
41.6797418,2021.0
41.6968979,2083.0
41.714054000000004,1964.0
41.7312101,1983.0
41.7483662,1996.0
41.7655223,1961.0
41.7826784,2013.0
41.7998345,1971.0
41.816990600000004,1963.0
41.8341467,1973.0
41.8513028,1955.0
41.8684589,2036.0
41.885615,2005.0
41.9027711,1967.0
41.919927200000004,1956.0
41.9370833,1925.0
41.9542394,1906.0
41.9713955,1933.0
41.9885516,1912.0
42.0057077,1887.0
42.0228638,1828.0
42.040019900000004,2005.0
42.057176,1931.0
42.0743321,1944.0
42.0914882,1829.0
42.1086443,1928.0
42.1258004,1930.0
42.142956500000004,1911.0
42.1601126,1953.0
42.1772687,1880.0
42.1944248,1908.0
42.2115809,1939.0
42.228737,1883.0
42.2458931,1911.0
42.263049200000005,1919.0
42.2802053,1887.0
42.2973614,1877.0
42.3145175,1947.0
42.3316736,2023.0
42.3488297,1969.0
42.365985800000004,2076.0
42.3831419,1930.0
42.400298,1866.0
42.4174541,1975.0
42.4346102,1987.0
42.4517663,1949.0
42.468922400000004,2002.0
42.4860785,1894.0
42.5032346,1900.0
42.5203907,1951.0
42.5375468,2051.0
42.5547029,1868.0
42.571859,1965.0
42.589015100000005,1917.0
42.6061712,1965.0
42.6233273,1938.0
42.6404834,1824.0
42.6576395,1950.0
42.6747956,1888.0
42.691951700000004,1981.0
42.7091078,1988.0
42.7262639,1948.0
42.74342,2001.0
42.7605761,1984.0
42.7777322,1892.0
42.794888300000004,1919.0
42.8120444,1909.0
42.8292005,1922.0
42.8463566,1896.0
42.8635127,1846.0
42.8806688,1886.0
42.8978249,1849.0
42.914981000000004,1890.0
42.9321371,1901.0
42.9492932,1966.0
42.9664493,1984.0
42.9836054,1890.0
43.0007615,1844.0
43.017917600000004,1981.0
43.0350737,1922.0
43.0522298,1858.0
43.0693859,1837.0
43.086542,1825.0
43.1036981,1922.0
43.120854200000004,1960.0
43.1380103,2002.0
43.1551664,1863.0
43.1723225,1931.0
43.1894786,1852.0
43.2066347,1969.0
43.2237908,1954.0
43.240946900000004,1938.0
43.258103,1927.0
43.2752591,1871.0
43.2924152,1951.0
43.3095713,1886.0
43.3267274,1854.0
43.343883500000004,1929.0
43.3610396,1911.0
43.3781957,1827.0
43.3953518,1907.0
43.4125079,1909.0
43.429664,1855.0
43.446820100000004,1872.0
43.4639762,1927.0
43.4811323,1894.0
43.4982884,1887.0
43.5154445,1946.0
43.5326006,1877.0
43.5497567,1825.0
43.566912800000004,1851.0
43.5840689,1827.0
43.601225,1801.0
43.6183811,1829.0
43.6355372,1738.0
43.6526933,1841.0
43.669849400000004,1869.0
43.6870055,1810.0
43.7041616,1841.0
43.7213177,1846.0
43.7384738,1808.0
43.7556299,1813.0
43.772786,1868.0
43.789942100000005,1857.0
43.8070982,1781.0
43.8242543,1756.0
43.8414104,1866.0
43.8585665,1879.0
43.8757226,1921.0
43.892878700000004,1837.0
43.9100348,1868.0
43.9271909,1743.0
43.944347,1746.0
43.9615031,1839.0
43.9786592,1892.0
43.995815300000004,1879.0
44.0129714,1846.0
44.0301275,1912.0
44.0472836,1862.0
44.0644397,1849.0
44.0815958,1886.0
44.0987519,1923.0
44.115908000000005,1883.0
44.1330641,1888.0
44.1502202,1795.0
44.1673763,1836.0
44.1845324,1902.0
44.2016885,1957.0
44.218844600000004,1886.0
44.2360007,1802.0
44.2531568,1816.0
44.2703129,1875.0
44.287469,1820.0
44.3046251,1866.0
44.321781200000004,1866.0
44.3389373,1827.0
44.3560934,1871.0
44.3732495,1850.0
44.3904056,1854.0
44.4075617,1870.0
44.4247178,1795.0
44.441873900000004,1802.0
44.45903,1781.0
44.4761861,1850.0
44.4933422,1794.0
44.5104983,1877.0
44.5276544,1745.0
44.544810500000004,1752.0
44.5619666,1755.0
44.5791227,1843.0
44.5962788,1790.0
44.6134349,1917.0
44.630591,1861.0
44.647747100000004,1833.0
44.6649032,1887.0
44.6820593,1788.0
44.6992154,1804.0
44.7163715,1835.0
44.7335276,1835.0
44.7506837,1880.0
44.767839800000004,1842.0
44.7849959,1799.0
44.802152,1826.0
44.8193081,1807.0
44.8364642,1755.0
44.8536203,1868.0
44.870776400000004,1833.0
44.8879325,1837.0
44.9050886,1785.0
44.9222447,1885.0
44.9394008,1938.0
44.9565569,1843.0
44.973713000000004,1822.0
44.990869100000005,1813.0
45.0080252,1934.0
45.0251813,1881.0
45.0423374,1922.0
45.0594935,1902.0
45.0766496,1857.0
45.093805700000004,1846.0
45.1109618,1897.0
45.1281179,1937.0
45.145274,2040.0
45.1624301,1956.0
45.1795862,1857.0
45.196742300000004,2017.0
45.2138984,1970.0
45.2310545,2033.0
45.2482106,2137.0
45.2653667,2078.0
45.2825228,2185.0
45.2996789,2170.0
45.316835000000005,2190.0
45.3339911,2187.0
45.3511472,2268.0
45.3683033,2275.0
45.3854594,2281.0
45.4026155,2385.0
45.419771600000004,2347.0
45.4369277,2395.0
45.4540838,2211.0
45.4712399,2296.0
45.488396,2204.0
45.5055521,2314.0
45.522708200000004,2164.0
45.5398643,2135.0
45.5570204,2136.0
45.5741765,2190.0
45.5913326,1979.0
45.6084887,2022.0
45.6256448,2071.0
45.642800900000005,2040.0
45.659957,1940.0
45.6771131,1931.0
45.6942692,1929.0
45.7114253,1935.0
45.7285814,1905.0
45.745737500000004,1915.0
45.7628936,1925.0
45.7800497,1939.0
45.7972058,1900.0
45.8143619,1893.0
45.831518,1915.0
45.848674100000004,1950.0
45.8658302,1864.0
45.8829863,1859.0
45.9001424,1937.0
45.9172985,1863.0
45.9344546,1912.0
45.9516107,1891.0
45.968766800000004,1946.0
45.9859229,1865.0
46.003079,1972.0
46.0202351,1913.0
46.0373912,1914.0
46.0545473,1920.0
46.071703400000004,1856.0
46.0888595,1945.0
46.1060156,1917.0
46.1231717,1873.0
46.1403278,1853.0
46.1574839,1864.0
46.174640000000004,1898.0
46.1917961,1879.0
46.2089522,1921.0
46.2261083,1863.0
46.2432644,1893.0
46.2604205,1909.0
46.2775766,1887.0
46.294732700000004,1958.0
46.3118888,1910.0
46.3290449,1916.0
46.346201,2037.0
46.3633571,1975.0
46.3805132,2038.0
46.397669300000004,2004.0
46.4148254,2076.0
46.4319815,2079.0
46.4491376,2113.0
46.4662937,2146.0
46.4834498,2062.0
46.500605900000004,2189.0
46.517762000000005,2082.0
46.5349181,2186.0
46.5520742,2224.0
46.5692303,2124.0
46.5863864,2281.0
46.6035425,2141.0
46.620698600000004,2164.0
46.6378547,2167.0
46.6550108,2134.0
46.6721669,2200.0
46.689323,2285.0
46.7064791,2296.0
46.723635200000004,2304.0
46.7407913,2466.0
46.7579474,2450.0
46.7751035,2534.0
46.7922596,2660.0
46.8094157,2720.0
46.8265718,2871.0
46.843727900000005,2978.0
46.860884,3145.0
46.8780401,3352.0
46.8951962,3645.0
46.9123523,4030.0
46.9295084,4440.0
46.946664500000004,4835.0
46.9638206,5684.0
46.9809767,6831.0
46.9981328,7734.0
47.0152889,8829.0
47.032445,9782.0
47.049601100000004,10471.0
47.0667572,11185.0
47.0839133,12349.0
47.1010694,13689.0
47.1182255,14903.0
47.1353816,15716.0
47.1525377,16079.0
47.169693800000005,16258.0
47.1868499,16068.0
47.204006,16202.0
47.2211621,16030.0
47.2383182,15637.0
47.2554743,14858.0
47.272630400000004,13969.0
47.2897865,13052.0
47.3069426,11972.0
47.3240987,10840.0
47.3412548,9599.0
47.3584109,8749.0
47.375567000000004,7664.0
47.3927231,6892.0
47.4098792,6289.0
47.4270353,5765.0
47.4441914,5150.0
47.4613475,4544.0
47.4785036,4077.0
47.495659700000004,3959.0
47.5128158,3616.0
47.5299719,3436.0
47.547128,3379.0
47.5642841,3281.0
47.5814402,3368.0
47.598596300000004,3339.0
47.6157524,3061.0
47.6329085,2905.0
47.6500646,2677.0
47.6672207,2810.0
47.6843768,2726.0
47.701532900000004,2607.0
47.718689000000005,2587.0
47.7358451,2416.0
47.7530012,2472.0
47.7701573,2266.0
47.7873134,2315.0
47.8044695,2197.0
47.821625600000004,2089.0
47.8387817,2155.0
47.8559378,2067.0
47.8730939,2071.0
47.89025,2099.0
47.9074061,2073.0
47.924562200000004,1955.0
47.9417183,1955.0
47.9588744,1988.0
47.9760305,2000.0
47.9931866,1995.0
48.0103427,2052.0
48.027498800000004,2044.0
48.044654900000005,2124.0
48.061811,2206.0
48.0789671,2139.0
48.0961232,2179.0
48.1132793,2253.0
48.1304354,2279.0
48.147591500000004,2273.0
48.1647476,2251.0
48.1819037,2264.0
48.1990598,2181.0
48.2162159,2228.0
48.233372,2069.0
48.250528100000004,2220.0
48.2676842,2073.0
48.2848403,2048.0
48.3019964,2049.0
48.3191525,1992.0
48.3363086,2007.0
48.3534647,1878.0
48.370620800000005,1980.0
48.3877769,1878.0
48.404933,1837.0
48.4220891,1971.0
48.4392452,1904.0
48.4564013,1908.0
48.473557400000004,1853.0
48.4907135,1823.0
48.5078696,1921.0
48.5250257,1862.0
48.5421818,1977.0
48.5593379,1999.0
48.576494000000004,2050.0
48.5936501,1950.0
48.6108062,1961.0
48.6279623,1950.0
48.6451184,1964.0
48.6622745,1872.0
48.6794306,1879.0
48.696586700000005,1908.0
48.7137428,1936.0
48.7308989,1783.0
48.748055,1799.0
48.7652111,1853.0
48.7823672,1872.0
48.799523300000004,1847.0
48.8166794,1849.0
48.8338355,1796.0
48.8509916,1789.0
48.8681477,1765.0
48.8853038,1685.0
48.902459900000004,1681.0
48.919616000000005,1762.0
48.9367721,1762.0
48.9539282,1753.0
48.9710843,1788.0
48.9882404,1730.0
49.0053965,1709.0
49.022552600000004,1640.0
49.0397087,1706.0
49.0568648,1758.0
49.0740209,1748.0
49.091177,1733.0
49.1083331,1694.0
49.125489200000004,1713.0
49.1426453,1703.0
49.1598014,1591.0
49.1769575,1623.0
49.1941136,1737.0
49.2112697,1695.0
49.228425800000004,1650.0
49.245581900000005,1685.0
49.262738,1688.0
49.2798941,1731.0
49.2970502,1646.0
49.3142063,1707.0
49.3313624,1718.0
49.348518500000004,1579.0
49.3656746,1694.0
49.3828307,1701.0
49.3999868,1643.0
49.4171429,1649.0
49.434299,1615.0
49.451455100000004,1652.0
49.4686112,1573.0
49.4857673,1726.0
49.5029234,1724.0
49.5200795,1636.0
49.5372356,1715.0
49.554391700000004,1625.0
49.571547800000005,1655.0
49.5887039,1746.0
49.60586,1656.0
49.6230161,1692.0
49.6401722,1686.0
49.6573283,1721.0
49.674484400000004,1751.0
49.6916405,1689.0
49.7087966,1600.0
49.7259527,1699.0
49.7431088,1687.0
49.7602649,1716.0
49.777421000000004,1735.0
49.7945771,1663.0
49.8117332,1714.0
49.8288893,1701.0
49.8460454,1710.0
49.8632015,1676.0
49.8803576,1679.0
49.897513700000005,1704.0
49.9146698,1696.0
49.9318259,1642.0
49.948982,1705.0
49.9661381,1716.0
49.9832942,1670.0
50.000450300000004,1671.0
50.0176064,1716.0
50.0347625,1662.0
50.0519186,1740.0
50.0690747,1733.0
50.0862308,1701.0
50.103386900000004,1733.0
50.120543,1565.0
50.1376991,1732.0
50.1548552,1651.0
50.1720113,1667.0
50.1891674,1608.0
50.2063235,1670.0
50.223479600000005,1725.0
50.2406357,1639.0
50.2577918,1688.0
50.2749479,1656.0
50.292104,1707.0
50.3092601,1572.0
50.326416200000004,1702.0
50.3435723,1676.0
50.3607284,1705.0
50.3778845,1677.0
50.3950406,1665.0
50.4121967,1591.0
50.429352800000004,1612.0
50.446508900000005,1612.0
50.463665,1603.0
50.4808211,1664.0
50.4979772,1736.0
50.5151333,1709.0
50.5322894,1653.0
50.549445500000004,1683.0
50.5666016,1668.0
50.5837577,1704.0
50.6009138,1670.0
50.6180699,1657.0
50.635226,1634.0
50.652382100000004,1674.0
50.6695382,1689.0
50.6866943,1614.0
50.7038504,1675.0
50.7210065,1719.0
50.7381626,1650.0
50.755318700000004,1634.0
50.772474800000005,1640.0
50.7896309,1689.0
50.806787,1588.0
50.8239431,1660.0
50.8410992,1677.0
50.8582553,1621.0
50.875411400000004,1599.0
50.8925675,1655.0
50.9097236,1671.0
50.9268797,1634.0
50.9440358,1729.0
50.9611919,1689.0
50.978348000000004,1586.0
50.9955041,1623.0
51.0126602,1611.0
51.0298163,1664.0
51.0469724,1678.0
51.0641285,1705.0
51.081284600000004,1673.0
51.098440700000005,1677.0
51.1155968,1635.0
51.1327529,1720.0
51.149909,1661.0
51.1670651,1718.0
51.1842212,1638.0
51.201377300000004,1714.0
51.2185334,1703.0
51.2356895,1734.0
51.2528456,1729.0
51.2700017,1731.0
51.2871578,1777.0
51.304313900000004,1762.0
51.32147,1741.0
51.3386261,1784.0
51.3557822,1755.0
51.3729383,1790.0
51.3900944,1806.0
51.4072505,1821.0
51.424406600000005,1747.0
51.4415627,1815.0
51.4587188,1798.0
51.4758749,1750.0
51.493031,1808.0
51.5101871,1749.0
51.527343200000004,1709.0
51.5444993,1732.0
51.5616554,1743.0
51.5788115,1696.0
51.5959676,1790.0
51.6131237,1870.0
51.630279800000004,1871.0
51.647435900000005,1930.0
51.664592,1959.0
51.6817481,2008.0
51.6989042,2019.0
51.7160603,1996.0
51.7332164,1893.0
51.750372500000005,1958.0
51.7675286,1934.0
51.7846847,1962.0
51.8018408,1826.0
51.8189969,1958.0
51.836153,1832.0
51.853309100000004,1814.0
51.8704652,1835.0
51.8876213,1796.0
51.9047774,1756.0
51.9219335,1821.0
51.9390896,1762.0
51.956245700000004,1771.0
51.973401800000005,1699.0
51.9905579,1705.0
52.007714,1729.0
52.0248701,1703.0
52.0420262,1769.0
52.0591823,1717.0
52.076338400000004,1798.0
52.0934945,1800.0
52.1106506,1864.0
52.1278067,1790.0
52.1449628,1735.0
52.1621189,1797.0
52.179275000000004,1789.0
52.1964311,1781.0
52.2135872,1827.0
52.2307433,1720.0
52.2478994,1788.0
52.2650555,1737.0
52.282211600000004,1657.0
52.299367700000005,1712.0
52.3165238,1640.0
52.3336799,1660.0
52.350836,1672.0
52.3679921,1687.0
52.3851482,1757.0
52.402304300000004,1658.0
52.4194604,1697.0
52.4366165,1794.0
52.4537726,1730.0
52.4709287,1787.0
52.4880848,1782.0
52.505240900000004,1796.0
52.522397,1782.0
52.5395531,1826.0
52.5567092,1819.0
52.5738653,1774.0
52.5910214,1702.0
52.608177500000004,1769.0
52.625333600000005,1732.0
52.6424897,1696.0
52.6596458,1714.0
52.6768019,1716.0
52.693958,1687.0
52.7111141,1602.0
52.728270200000004,1704.0
52.7454263,1703.0
52.7625824,1641.0
52.7797385,1661.0
52.7968946,1633.0
52.8140507,1646.0
52.831206800000004,1641.0
52.8483629,1701.0
52.865519,1664.0
52.8826751,1622.0
52.8998312,1601.0
52.9169873,1589.0
52.9341434,1570.0
52.951299500000005,1498.0
52.9684556,1558.0
52.9856117,1639.0
53.0027678,1597.0
53.0199239,1549.0
53.03708,1620.0
53.054236100000004,1609.0
53.0713922,1667.0
53.0885483,1628.0
53.1057044,1624.0
53.1228605,1672.0
53.1400166,1597.0
53.157172700000004,1596.0
53.174328800000005,1648.0
53.1914849,1630.0
53.208641,1673.0
53.2257971,1675.0
53.2429532,1722.0
53.2601093,1691.0
53.277265400000005,1694.0
53.2944215,1676.0
53.3115776,1684.0
53.3287337,1685.0
53.3458898,1786.0
53.3630459,1754.0
53.380202000000004,1722.0
53.3973581,1794.0
53.4145142,1800.0
53.4316703,1895.0
53.4488264,1919.0
53.4659825,1910.0
53.483138600000004,1843.0
53.500294700000005,1859.0
53.5174508,1854.0
53.5346069,1844.0
53.551763,1870.0
53.5689191,1822.0
53.5860752,1767.0
53.603231300000004,1815.0
53.6203874,1904.0
53.6375435,1712.0
53.6546996,1822.0
53.6718557,1855.0
53.6890118,1706.0
53.706167900000004,1811.0
53.723324,1749.0
53.7404801,1777.0
53.7576362,1720.0
53.7747923,1720.0
53.7919484,1720.0
53.809104500000004,1724.0
53.826260600000005,1695.0
53.8434167,1753.0
53.8605728,1714.0
53.8777289,1802.0
53.894885,1785.0
53.9120411,1702.0
53.929197200000004,1737.0
53.9463533,1723.0
53.9635094,1726.0
53.9806655,1709.0
53.9978216,1770.0
54.0149777,1713.0
54.032133800000004,1686.0
54.0492899,1706.0
54.066446,1778.0
54.0836021,1787.0
54.1007582,1738.0
54.1179143,1779.0
54.135070400000004,1795.0
54.152226500000005,1820.0
54.1693826,1774.0
54.1865387,1800.0
54.2036948,1936.0
54.2208509,1923.0
54.238007,2035.0
54.255163100000004,2073.0
54.2723192,2100.0
54.2894753,2042.0
54.3066314,2086.0
54.3237875,2041.0
54.3409436,2030.0
54.358099700000004,2026.0
54.375255800000005,2030.0
54.3924119,2031.0
54.409568,2009.0
54.4267241,1994.0
54.4438802,1971.0
54.4610363,1938.0
54.478192400000005,1918.0
54.4953485,1956.0
54.5125046,1988.0
54.5296607,1829.0
54.5468168,1898.0
54.5639729,1801.0
54.581129000000004,1764.0
54.5982851,1749.0
54.6154412,1752.0
54.6325973,1839.0
54.6497534,1788.0
54.6669095,1743.0
54.684065600000004,1759.0
54.701221700000005,1782.0
54.7183778,1754.0
54.7355339,1744.0
54.75269,1838.0
54.7698461,1770.0
54.7870022,1857.0
54.804158300000005,1750.0
54.8213144,1891.0
54.8384705,1805.0
54.8556266,1942.0
54.8727827,1936.0
54.8899388,1888.0
54.907094900000004,1881.0
54.924251,1849.0
54.9414071,1887.0
54.9585632,1884.0
54.9757193,1854.0
54.9928754,1832.0
55.010031500000004,1851.0
55.027187600000005,1853.0
55.0443437,1865.0
55.0614998,1851.0
55.0786559,1854.0
55.095812,1857.0
55.1129681,1869.0
55.130124200000004,1851.0
55.1472803,1992.0
55.1644364,1914.0
55.1815925,1854.0
55.1987486,2004.0
55.2159047,1859.0
55.233060800000004,1877.0
55.2502169,1968.0
55.267373,1993.0
55.2845291,1976.0
55.3016852,1983.0
55.3188413,2165.0
55.335997400000004,2101.0
55.353153500000005,2172.0
55.3703096,2251.0
55.3874657,2439.0
55.4046218,2492.0
55.4217779,2494.0
55.438934,2534.0
55.456090100000004,2704.0
55.4732462,2816.0
55.4904023,2958.0
55.5075584,3086.0
55.5247145,3246.0
55.5418706,3385.0
55.559026700000004,3634.0
55.5761828,3957.0
55.5933389,4381.0
55.610495,4950.0
55.6276511,5787.0
55.6448072,6596.0
55.661963300000004,8035.0
55.679119400000005,9758.0
55.6962755,11260.0
55.7134316,12626.0
55.7305877,13152.0
55.7477438,13044.0
55.7648999,12913.0
55.782056000000004,12871.0
55.7992121,12904.0
55.8163682,13073.0
55.8335243,13708.0
55.8506804,14889.0
55.8678365,16151.0
55.884992600000004,16670.0
55.902148700000005,16570.0
55.9193048,15540.0
55.9364609,14653.0
55.953617,13875.0
55.9707731,13443.0
55.9879292,13259.0
56.005085300000005,13683.0
56.0222414,14128.0
56.0393975,15081.0
56.0565536,15169.0
56.0737097,14641.0
56.0908658,13604.0
56.108021900000004,12669.0
56.125178,11310.0
56.1423341,10273.0
56.1594902,9366.0
56.1766463,8811.0
56.1938024,8593.0
56.210958500000004,8125.0
56.228114600000005,7659.0
56.2452707,6943.0
56.2624268,6313.0
56.2795829,5513.0
56.296739,4902.0
56.3138951,4566.0
56.331051200000005,3981.0
56.3482073,3555.0
56.3653634,3228.0
56.3825195,2951.0
56.3996756,2794.0
56.4168317,2631.0
56.433987800000004,2602.0
56.4511439,2443.0
56.4683,2468.0
56.4854561,2253.0
56.5026122,2278.0
56.5197683,2220.0
56.536924400000004,2027.0
56.554080500000005,2136.0
56.5712366,2044.0
56.5883927,1997.0
56.6055488,1981.0
56.6227049,1986.0
56.639861,1899.0
56.657017100000004,1912.0
56.6741732,1908.0
56.6913293,1854.0
56.7084854,1897.0
56.7256415,1852.0
56.7427976,1888.0
56.759953700000004,1800.0
56.7771098,1829.0
56.7942659,1823.0
56.811422,1846.0
56.8285781,1850.0
56.8457342,1773.0
56.862890300000004,1831.0
56.880046400000005,1797.0
56.8972025,1767.0
56.9143586,1773.0
56.9315147,1827.0
56.9486708,1814.0
56.9658269,1818.0
56.982983000000004,1822.0
57.0001391,1762.0
57.0172952,1848.0
57.0344513,1885.0
57.0516074,1847.0
57.0687635,1912.0
57.085919600000004,1967.0
57.103075700000005,1942.0
57.1202318,1864.0
57.1373879,2047.0
57.154544,2051.0
57.1717001,2105.0
57.188856200000004,2080.0
57.206012300000005,2114.0
57.2231684,2058.0
57.2403245,2059.0
57.2574806,1978.0
57.2746367,2112.0
57.2917928,1992.0
57.308948900000004,2017.0
57.326105,2022.0
57.3432611,1991.0
57.3604172,1939.0
57.3775733,2075.0
57.3947294,1938.0
57.411885500000004,1973.0
57.429041600000005,1870.0
57.4461977,1865.0
57.4633538,1862.0
57.4805099,1789.0
57.497666,1822.0
57.5148221,1750.0
57.531978200000005,1819.0
57.5491343,1808.0
57.5662904,1724.0
57.5834465,1698.0
57.6006026,1627.0
57.6177587,1695.0
57.634914800000004,1685.0
57.6520709,1716.0
57.669227,1722.0
57.6863831,1635.0
57.7035392,1701.0
57.7206953,1654.0
57.737851400000004,1596.0
57.755007500000005,1720.0
57.7721636,1625.0
57.7893197,1665.0
57.8064758,1611.0
57.8236319,1637.0
57.840788,1681.0
57.857944100000005,1771.0
57.8751002,1646.0
57.8922563,1726.0
57.9094124,1691.0
57.9265685,1697.0
57.9437246,1681.0
57.960880700000004,1661.0
57.9780368,1785.0
57.9951929,1796.0
58.012349,1699.0
58.0295051,1643.0
58.0466612,1732.0
58.063817300000004,1754.0
58.080973400000005,1740.0
58.0981295,1750.0
58.1152856,1797.0
58.1324417,1793.0
58.1495978,1661.0
58.1667539,1786.0
58.183910000000004,1808.0
58.2010661,1806.0
58.2182222,1801.0
58.2353783,1810.0
58.2525344,1813.0
58.2696905,1953.0
58.286846600000004,2005.0
58.3040027,2059.0
58.3211588,2009.0
58.3383149,2136.0
58.355471,2138.0
58.3726271,2199.0
58.389783200000004,2305.0
58.406939300000005,2409.0
58.4240954,2472.0
58.4412515,2611.0
58.4584076,2699.0
58.4755637,3027.0
58.4927198,3375.0
58.509875900000004,3654.0
58.527032,4226.0
58.5441881,4741.0
58.5613442,5571.0
58.5785003,6485.0
58.5956564,7060.0
58.612812500000004,7737.0
58.629968600000005,7772.0
58.6471247,7579.0
58.6642808,7390.0
58.6814369,6695.0
58.698593,6174.0
58.715749100000004,5819.0
58.732905200000005,5660.0
58.7500613,5746.0
58.7672174,5685.0
58.7843735,5564.0
58.8015296,5286.0
58.8186857,4949.0
58.835841800000004,4313.0
58.8529979,3885.0
58.870154,3507.0
58.8873101,3169.0
58.9044662,2802.0
58.9216223,2567.0
58.938778400000004,2442.0
58.955934500000005,2296.0
58.9730906,2223.0
58.9902467,2123.0
59.0074028,2091.0
59.0245589,2001.0
59.041715,2028.0
59.058871100000005,1923.0
59.0760272,1872.0
59.0931833,1840.0
59.1103394,1762.0
59.1274955,1798.0
59.1446516,1769.0
59.161807700000004,1753.0
59.1789638,1758.0
59.1961199,1704.0
59.213276,1666.0
59.2304321,1663.0
59.2475882,1680.0
59.264744300000004,1724.0
59.281900400000005,1699.0
59.2990565,1731.0
59.3162126,1732.0
59.3333687,1724.0
59.3505248,1673.0
59.3676809,1672.0
59.384837000000005,1657.0
59.4019931,1693.0
59.4191492,1677.0
59.4363053,1649.0
59.4534614,1720.0
59.4706175,1741.0
59.487773600000004,1839.0
59.5049297,1856.0
59.5220858,1901.0
59.5392419,1883.0
59.556398,1904.0
59.5735541,1968.0
59.590710200000004,1979.0
59.607866300000005,2067.0
59.6250224,2132.0
59.6421785,2226.0
59.6593346,2169.0
59.6764907,2255.0
59.6936468,2117.0
59.710802900000004,2128.0
59.727959,2194.0
59.7451151,2049.0
59.7622712,2118.0
59.7794273,2005.0
59.7965834,2051.0
59.813739500000004,1985.0
59.830895600000005,2044.0
59.8480517,2008.0
59.8652078,1915.0
59.8823639,1868.0
59.89952,1772.0
59.916676100000004,1813.0
59.933832200000005,1664.0
59.9509883,1804.0
59.9681444,1829.0
59.9853005,1645.0
60.0024566,1667.0
60.0196127,1710.0
60.036768800000004,1612.0
